"Time [ms]","InducedVoltage(Cos_Winding) [mV]","InducedVoltage(Sin_Winding) [mV]"
0,-963.308520448523,-553.340168899066
0.0125,-833.582860694907,-484.423377664962
0.025,-703.857200941291,-415.506586430859
0.0375,-467.613847510656,-282.186005917839
0.05,-161.170807508948,-104.208136559537
0.0625,168.637828425579,91.6383346659805
0.075,471.580838995121,275.516544370739
0.0875,701.705105894061,419.1274293709
0.1,824.300944308558,500.041798758331
0.1125,821.141333815143,505.208984503021
0.125,693.1855049104,433.05413803481
0.1375,460.378036331218,293.846540135157
0.15,158.498533887153,108.221537441809
0.1625,-166.28225809343,-95.8420867234431
0.175,-464.505005421405,-287.275933637784
0.1875,-690.946512115046,-436.621865299074
0.2,-811.469634283026,-520.591315047096
0.2125,-808.180753173216,-525.677727295479
0.225,-682.082432695021,-450.334308375093
0.2375,-452.841444026134,-305.318396608376
0.25,-155.727410941591,-112.169745267617
0.2625,163.8198920057,99.9909417140812
0.275,457.13726299757,298.854179812056
0.2875,679.752474192014,453.843578311378
0.3,798.122412579425,540.811478348253
0.3125,794.70676114981,545.815222155446
0.325,670.542328430593,467.326130264619
0.3375,445.018795023035,316.596324064881
0.35,152.855773155525,116.046223583674
0.3625,-161.258849430613,-104.076105076702
0.375,-449.476168842321,-310.241510194127
0.3875,-668.120180758644,-470.775668992325
0.4,-784.268459666521,-560.690616447624
0.4125,-780.72653499673,-565.604333695378
0.425,-658.57396466712,-484.02008638225
0.4375,-436.912917015258,-327.673950836794
0.45,-149.881835741207,-119.844230450176
0.4625,158.582209492706,108.090427831802
0.475,441.531024758729,321.435947339589
0.4875,656.067614727153,487.406043186897
0.5,769.914404350375,580.210183696471
0.5125,766.250574857444,585.032779079315
0.525,646.187174938762,500.404239115009
0.5375,428.534196183797,338.543114595489
0.55,146.825251140938,123.573821291893
0.5625,-155.817283046462,-112.042125467695
0.575,-433.304416062786,-332.422601631156
0.5875,-643.59854186052,-503.72858344062
0.6,-755.076957059107,-599.360644231734
0.6125,-751.292115977768,-604.088328784201
0.625,-633.39951369638,-516.476814600551
0.6375,-419.88234617949,-349.194969274803
0.65,-143.673251064723,-127.221149665311
0.6625,152.949392487113,115.920539192062
0.675,424.80591576389,343.19726860211
0.6875,630.727182913795,519.730786334086
0.7,739.764736622857,618.132668929944
0.7125,735.864525520886,622.766337199714
0.725,620.212356505399,532.218976289345
0.7375,410.970447298056,359.63148376053
0.75,140.42825861508,130.78962173526
0.7625,-149.985422910294,-119.722540429614
0.775,-416.045755217395,-353.760848016931
0.7875,-617.455341034065,-535.404745794043
0.8,-723.989069646501,-636.518285476189
0.812500000000001,-719.972404519546,-641.052687527484
0.825000000000001,-606.634026603604,-547.629801145783
0.837500000000001,-401.797771967428,-369.84166621928
0.850000000000001,-137.092639361237,-134.273411652736
0.862500000000001,146.925508988275,123.450017834019
0.875000000000001,407.015803863023,364.095029293878
0.887500000000001,603.800956276788,550.748692237427
0.900000000000001,707.754574154902,654.503827954407
0.912500000000001,703.625668242687,658.935753719664
0.925000000000001,592.670163111044,562.694934478434
0.937500000000001,392.366994844875,379.813089810125
0.950000000000001,133.675990999457,137.683119837445
0.962500000000001,-143.778064590258,-127.105348220561
0.975000000000001,-397.731045607479,-374.205725036389
0.987500000000001,-589.759687626402,-565.741960340841
1,-691.070020204524,-672.073865023848
1.0125,-686.828901553128,-676.399889398478
1.025,-578.328868747633,-577.403264284684
1.0375,-382.692261657181,-389.551025468228
1.05,-130.167765632273,-140.989830944289
1.0625,140.536229545734,130.676663053025
1.075,388.193847704336,384.077705670455
1.0875,575.342560664504,580.373449163282
1.1,673.945160465962,689.216193025256
1.1125,669.597083526291,693.433329730314
1.125,563.621588634041,591.741098270622
1.1375,372.769046295921,399.035814765369
1.15,126.5802596705,144.21326319463
1.1625,-137.203909807929,-134.164147233719
1.175,-378.409988890296,-393.704973200444
1.1875,-560.559235192697,-594.635298743407
1.2,-656.394845026941,-705.919087598742
1.2125,-651.942585033282,-710.02585223411
1.225,-548.559761351924,-605.705311592147
1.2375,-362.616525500674,-408.26806574144
1.25,-122.912989313906,-147.344281494627
1.2625,133.786640001412,137.570056756149
1.275,368.384673065068,403.074843109944
1.2875,545.427332786237,608.522883721155
1.3,638.433216096768,722.175728329174
1.3125,633.880434917567,726.168973270458
1.325,533.154542110426,619.286297066668
1.3375,352.235037558209,417.244765470565
1.35,119.169691535958,150.38541505278
1.3625,-130.280259963816,-140.881084446859
1.375,-358.132388449259,-412.200042719992
1.3875,-529.953696634142,-622.025098942408
1.4,-620.073361823998,-737.97922560574
1.4125,-615.421599459602,-741.858223350457
1.425,-517.411339404934,-632.476685054856
1.4375,-341.63669006693,-425.961867405543
1.45,-115.352334221997,-153.33145638874
1.4625,126.699965587226,144.109760389939
1.475,347.654384301075,421.061637468376
1.4875,514.145678129086,635.137030392831
1.5,601.321935840685,753.31980483909
1.5125,596.573647013052,757.080247254151
1.525,501.348189914254,645.277026987464
1.5375,330.814944357815,434.405689523459
1.55,111.460186761198,156.180886119829
1.5625,-123.035414599432,-147.245790654241
1.575,-336.959777634999,-429.665215314388
1.5875,-498.013280077865,-647.850206120516
1.6,-582.188496438803,-768.182638685564
1.6125,-577.347386100429,-771.824662425397
1.625,-484.963172882496,-657.663654053391
1.6375,-319.786074239538,-442.574840898476
1.65,-107.496029589022,-158.929020146751
1.6625,119.296340257392,150.289248223761
1.675,326.048885768465,437.991411296162
1.6875,481.561633987977,660.151654459883
1.7,562.685803459427,782.55986446856
1.7125,557.754611293212,786.076998713042
1.725,468.269769949206,669.630274771206
1.7375,308.553812349854,450.464469584634
1.75,103.46018949911,161.571321212487
1.7625,-115.47360111711,-153.235337918819
1.775,-314.929142961292,-446.038374761065
1.7875,-464.809288737277,-672.0337240955
1.8,-542.826350937972,-796.435628430045
1.8125,-537.809461863364,-799.828671574954
1.825,-451.281470433629,-681.171564860346
1.8375,-297.129183113867,-458.06476901668
1.85,-99.3697890403983,-164.122160579422
1.8625,111.586483941968,156.089571287876
1.875,303.612075752011,453.80130397546
1.8875,447.762295559937,683.486858074069
1.9,522.629049810873,809.80943364993
1.9125,517.528264026956,813.072052799285
1.925,434.012984427078,692.285342252534
1.9375,285.518759169921,465.375958179752
1.95,95.214581390214,166.564956303847
1.9625,-107.62520571963,-158.841208375352
1.97499999999999,-292.106509319278,-461.278359929998
1.98749999999999,-430.437360679243,-694.507219942378
1.99999999999999,-502.105513909552,-822.671522243841
2.01249999999999,-496.924861310181,-825.806318413712
2.02499999999999,-416.474821565056,-702.961717150433
2.03749999999999,-273.731216364933,-472.398138469925
2.04999999999999,-90.9975588889528,-168.902023138648
2.06249999999999,103.598120319453,161.488612299794
2.07499999999999,280.421657193358,468.4692586612
2.08749999999999,412.841126149034,705.09280178625
2.09999999999999,481.267555029583,835.017525409982
2.11249999999999,476.009462616817,838.020393981864
2.12499999999999,398.672615297415,713.196659291259
2.13749999999999,261.771429738838,479.126016418269
2.14999999999999,86.7220580083417,171.132793531576
2.16249999999999,-99.5057820106255,-164.040551868839
2.17499999999999,-268.554619111922,-475.356954077782
2.18749999999999,-394.989333724936,-715.239605486381
2.19999999999999,-460.125831374846,-846.838752774719
2.21249999999999,-454.794586477422,-849.710398801899
2.22499999999999,-380.616057966628,-722.972786644943
2.23749999999999,-249.645409145647,-485.548868990603
2.24999999999999,-82.393299124103,-173.261125745698
2.26249999999999,95.3516889941072,166.48979477015
2.27499999999999,256.520217726566,481.950440539933
2.28749999999999,376.884747698768,724.93069214713
2.29999999999999,438.69269880633,858.122253737972
2.31249999999999,433.290032681805,860.858323529386
2.32499999999999,362.320305035608,732.301885499396
2.33749999999999,237.357964868824,491.652579981919
2.34999999999999,78.0148693318819,175.274161921799
2.36249999999999,-91.135602889491,-168.831215337479
2.37499999999999,-244.323926205599,-488.238580860449
2.38749999999999,-358.542137512054,-734.157816943885
2.39999999999999,-416.981505823991,-868.859338803672
2.41249999999999,-411.512172075899,-871.456266899862
2.42499999999999,-343.799035449413,-741.161499249819
2.43749999999999,-224.921748863976,-497.446003709702
2.44999999999999,-73.5831427384349,-177.173581810881
2.46249999999999,86.860385310765,171.060237248901
2.47499999999999,231.972743056639,494.214289845168
2.48749999999999,339.97334268008,742.920201462753
2.49999999999999,395.00962854216,879.042624151282
2.51249999999999,389.477448041882,881.501781884171
2.52499999999999,325.06228472881,749.550074528646
2.53749999999999,212.350973420625,502.936403596693
2.54999999999999,69.104585679565,178.945775023614
2.56249999999999,-82.5311616165368,-173.177683285638
2.57499999999999,-219.477894805711,-499.872481629298
2.58749999999999,-321.193822825297,-751.212984033861
2.59999999999999,-372.79241308507,-888.670887121641
2.61249999999999,-367.20201275673,-890.991365695786
2.62499999999999,-306.124112646037,-757.464897082354
2.63749999999999,-199.646150076686,-508.106674610667
2.64999999999999,-64.5864718234003,-180.633556208177
2.66249999999999,78.1550448390129,175.206257049692
2.67499999999999,206.844042007252,505.21636972699
2.68749999999999,302.215168581137,759.031545254669
2.69999999999999,350.34449228358,897.742322624981
2.71249999999999,344.697287116471,899.922888658322
2.72499999999999,286.993049508067,764.905691593541
2.73749999999999,186.816835867313,512.955248234214
2.74999999999999,60.0291630877026,182.200266747099
2.76249999999999,-73.7301067551146,-177.115830695948
2.77499999999999,-194.085310533312,-510.247460617192
2.78749999999999,-283.045863909292,-766.371354039943
2.79999999999999,-327.675054789396,-906.249450938943
2.81249999999999,-321.975205277135,-908.287161610568
2.82499999999999,-267.68171076739,-771.868004377468
2.83749999999999,-173.866609934584,-517.477589141013
2.84999999999999,-55.4321343020092,-183.649509333079
2.86249999999999,69.2552442504543,178.902832881832
2.87499999999999,181.204403772408,514.970031718751
2.88749999999999,263.69755270806,773.226332686771
2.89999999999999,304.798459905144,914.183068252282
2.91249999999999,299.048104105217,916.076633184422
2.92499999999999,248.20053127519,778.33756698605
2.93749999999999,160.807790540061,521.674109784895
2.94999999999999,50.7992485900494,184.977577328149
2.96249999999999,-64.7378256362774,-180.581859583244
2.97499999999999,-168.207050523879,-519.344986487118
2.98749999999999,-244.183958553368,-779.603648752356
2.99999999999999,-281.726840151629,-921.535393537689
3.01249999999999,-275.932249723503,-923.283425317659
3.02499999999999,-228.562441873479,-784.309499805241
3.03749999999999,-147.646071466335,-525.539835195305
3.04999999999999,-46.1331901338945,-186.187271483939
3.06249999999999,60.1769183020121,182.1484432256
3.07499999999999,155.100274542156,523.393713676122
3.08749999999999,224.516397194743,785.476428709762
3.09999999999999,258.480363457511,928.301447284486
3.11249999999999,252.643332849505,929.902300713003
3.12499999999999,208.781227268508,789.784363457172
3.13749999999999,134.395145820208,529.068370127115
3.14999999999999,41.4413881828968,187.28920681422
3.16249999999999,-55.5811745567969,-183.603142898306
3.17499999999999,-141.898176340117,-527.111371179789
3.18749999999999,-204.70787698701,-790.847792214977
3.19999999999999,-235.073866537398,-934.481935912646
3.21249999999999,-229.199053623107,-935.932731760262
3.22499999999999,-188.871184658238,-794.764018052159
3.23749999999999,-121.059892792842,-532.264089242354
3.24999999999999,-36.7246532442109,-188.266493948534
3.26249999999999,50.9492898272174,184.934949277013
3.27499999999999,128.609549936534,530.498611218385
3.28749999999999,184.774023988179,795.721290296728
3.29999999999999,211.52192081254,940.072483319043
3.31249999999999,205.612205387954,941.376553606806
3.32499999999999,168.845739585616,799.243301158042
3.33749999999999,107.649640069594,535.130476013596
3.34999999999999,31.9833731182611,189.124735767448
3.36249999999999,-46.2886820943177,-186.150133360028
3.37499999999999,-115.242311429983,-533.554476936322
3.38749999999999,-164.722974086346,-800.096677010481
3.39999999999999,-187.836990797231,-945.073780347212
3.41249999999999,-181.89611390195,-946.230067368947
3.42499999999999,-148.710679534552,-803.218906366978
3.43749999999999,-94.1706563611961,-537.658954444536
3.44999999999999,-27.2207441301251,-189.86609982397
3.46249999999999,41.5963584466498,187.25340957803
3.47499999999999,101.800551576984,536.266421293332
3.48749999999999,144.569144919421,803.973841257563
3.49999999999999,164.032139175517,949.480356993291
3.51249999999999,158.063761255956,950.488737965517
3.52499999999999,128.48156715703,806.686469518446
3.53749999999999,80.631273410219,539.844029145585
3.54999999999999,22.4400053400659,190.491472131651
3.56249999999999,-36.878585096289,-188.237185771059
3.57499999999999,-88.2934367353564,-538.64987640715
3.58749999999999,-124.322026967413,-807.33860363562
3.59999999999999,-140.122558554715,-953.285044063216
3.61249999999999,-134.130238535505,-954.141938396429
3.62499999999999,-108.169207080791,-809.645542634621
3.63749999999998,-67.0403072013619,-541.689389445242
3.64999999999998,-17.6483693320145,-190.985835121663
3.66249999999998,32.1378283271598,189.100979268072
3.67499999999998,74.7293286672419,540.689663233829
3.68749999999998,103.996803257032,810.189022655038
3.69999999999998,116.124162032433,956.483041566145
3.71249999999998,110.112731882231,957.187739575669
3.72499999999998,87.7930001668551,812.089534432815
3.73749999999998,53.4069833598728,543.186530532878
3.74999999999998,12.8424593118689,191.362291672805
3.76249999999998,-27.3743204570298,-189.844425246666
3.77499999999998,-61.1203375261977,-542.382151407206
3.78749999999998,-83.6055125845764,-812.526799299853
3.79999999999998,-92.0550042868358,-959.07272138829
3.81249999999998,-86.0282822757108,-959.627564755731
3.82499999999998,-67.3612979559027,-814.019056890606
3.83749999999998,-39.7440947671767,-544.34510800721
3.84999999999998,-8.03141035487175,-191.619219725099
3.86249999999998,22.5945473100611,190.469261664955
3.87499999999998,47.4746604080951,543.729511444397
3.88749999999998,63.1653076537792,814.351124266179
3.89999999999998,67.9305700586799,961.061053135314
3.91249999999998,61.89286175155,961.464186901383
3.92499999999998,46.8906103005658,815.435913631189
3.93749999999998,26.0557438501441,545.162919590362
3.94999999999998,3.21370032553417,191.756855019386
3.96249999999999,-17.8024261210726,-190.966632882452
3.97499999999999,-33.7975763967846,-544.741866114398
3.98749999999999,-42.6878860206382,-815.663673981462
3.99999999999999,-43.7650277657886,-962.447703294381
4.01249999999999,-37.7186866105151,-962.699755034338
4.02499999999999,-26.388034668067,-816.341022457765
4.03749999999999,-12.3518424576852,-545.638717561174
4.04999999999999,1.60296049696487,-191.778720647091
4.06249999999999,13.0009776043875,191.352668068833
4.07499999999999,20.1029290670478,545.409994248798
4.08749999999999,22.1811270576404,816.466582525513
4.09999999999999,19.5705695311369,963.228971990611
4.11249999999999,13.5191717781345,963.327600605512
4.12499999999999,5.86911555938303,816.74069886447
4.13749999999999,-1.36200692889715,545.766447621039
4.14999999999999,-6.42269251525064,191.675977039146
4.16249999999999,-8.18905104786787,-191.616520910807
4.17499999999999,-6.39297274004754,-545.735708000721
4.18749999999999,-1.6594829349235,-816.756865302177
4.19999999999999,4.6379188082514,-963.401631051636
4.21249999999999,10.6907272863308,-963.350579268723
4.22499999999999,14.6543326070355,-816.614597361191
4.23749999999999,15.0748992813906,-545.550783714085
4.24999999999999,11.2363108704077,-191.448258063715
4.26249999999999,3.37372302410798,191.758383967728
4.27499999999999,-7.32061301470624,545.718968653734
4.28749999999999,-18.8647265346479,816.522124458644
4.29999999999999,-28.8446535581382,962.964742463008
4.3125,-34.8932602211923,962.759419742356
4.325,-35.1675244870908,815.970843193485
4.3375,-28.7783358908228,544.988077877413
4.35,-16.0446965752174,191.09656795624
4.3625,1.44804633044512,-191.777733819776
4.375,21.0327104631697,-545.347985388735
4.3875,39.3733004989912,-815.775305185182
4.4,53.0297599202087,-961.913885509374
4.4125,59.0709100715078,-961.5561757913
4.425,55.6579526729066,-814.811547155549
4.4375,42.4593271919604,-544.074809599446
4.45,20.8396032406685,-190.638490275631
4.4625,-6.26641751740962,191.680136006415
4.475,-34.726313238748,544.633810883527
4.4875,-59.8562876962507,814.510646709979
4.5,-77.1787748179361,960.256430352449
4.5125,-83.2081745812528,959.747023719544
4.525,-76.1098860618535,813.139585805498
4.5375,-56.1141820313919,542.829549961995
4.55,-25.6197601473592,190.046356553304
4.5625,11.0801066168179,-191.455443886894
4.575,48.3978096984894,-543.578744331153
4.5875,80.2972570077696,-812.731706493766
4.6,101.276829592113,-957.996622460521
4.6125,107.292323293808,-957.337843541022
4.625,96.5109057457997,-810.956535057657
4.6375,69.7342407367562,-541.243036166345
4.65,30.3856351930518,-189.340243174476
4.66250000000001,-15.8845700501522,191.112355289745
4.67500000000001,-62.0362999728085,542.185057914938
4.68750000000001,-100.690092879294,810.444529285768
4.70000000000001,-125.312142218802,955.135716574116
4.71250000000001,-131.309093237049,954.326990030522
4.72500000000001,-116.855952127682,808.265984422134
4.73750000000001,-83.3094935437813,539.31226023673
4.75000000000001,-35.1356728188807,188.516249435875
4.76250000000001,20.6828203426817,-190.657221774103
4.77500000000001,75.6370544000514,-540.438420139864
4.78750000000001,121.020352129043,-807.651440210567
4.80000000000001,149.269985006962,-951.674403126325
4.81250000000001,155.245471690865,-950.715014399514
4.82500000000001,137.12715380522,-805.065192517146
4.83750000000001,96.8336966954359,-537.038886374723
4.85000000000001,39.8621650680243,-187.572174037514
4.86250000000001,-25.4651417610852,190.069478461297
4.87500000000001,-89.1945882431983,538.368000992851
4.88750000000001,-141.274613997502,804.344195041437
4.90000000000001,-173.134143463339,947.609593949507
4.91250000000001,-179.083927672713,946.499360091889
4.92500000000001,-157.312245236892,801.346864067763
4.93750000000001,-110.297322350443,534.433064047068
4.95000000000001,-44.5577234065868,186.503754632373
4.96250000000001,30.2316477628381,-189.366484686683
4.97500000000001,102.693910553563,-535.949064234392
4.98750000000001,161.438370317158,-800.525819289704
5.00000000000001,196.887290239685,-942.941675745009
5.01250000000002,202.806860172901,-941.680384476459
5.02500000000002,177.393179935703,-797.127883366186
5.03750000000002,123.68755831032,-531.476027293153
5.05000000000002,49.2314383648053,-185.321975898067
5.06250000000002,-34.9821078474783,188.545135642028
5.07500000000002,-116.124277766111,533.186041371257
5.08750000000002,-181.500108376641,796.201896422027
5.10000000000002,-220.512543056296,937.673198704678
5.11250000000002,-226.398411458644,936.266493396151
5.12500000000002,-197.362386686112,792.402246674521
5.13750000000002,-136.99866520333,528.188623397348
5.15000000000002,-53.8702780763133,184.023714270464
5.16250000000002,39.707896780095,-187.60300530513
5.17500000000002,129.481346447543,-530.088024219982
5.18750000000002,201.442536382965,-791.370592694186
5.20000000000002,243.997962076436,-931.819456626123
5.21250000000002,249.845255942108,-930.264216757191
5.22500000000002,217.20346024083,-787.177186675645
5.23750000000002,150.225379606379,-524.573136390739
