"Time [ms]","InducedVoltage(Cos_Winding) [mV]","InducedVoltage(Sin_Winding) [mV]"
0,-962.593460859178,-552.962219649687
0.0125,-832.962721865603,-484.09470459836
0.025,-703.331982872028,-415.227189547033
0.0375,-467.263398712677,-281.998700325475
0.05,-161.047914425478,-104.141408118161
0.0625,168.514072683723,91.5739498933811
0.075,471.229484093584,275.330157802946
0.0875,701.180140713337,418.847357116445
0.1,823.682321353697,499.710538366711
0.1125,820.52325698206,504.876959705728
0.125,692.662117273019,432.772006658688
0.1375,460.028623082385,293.657085857198
0.15,158.376239701056,108.154160985686
0.1625,-166.158958862882,-95.7766280795984
0.175,-464.154787561755,-287.087847446668
0.1875,-690.423264558584,-436.33898159339
0.2,-810.853227023973,-520.256756680377
0.2125,-807.56500007157,-525.342373917904
0.225,-681.560867848225,-450.049099254006
0.2375,-452.493566564584,-305.12715628098
0.25,-155.605840313501,-112.101790171612
0.2625,163.696952244289,99.9249540977411
0.275,456.78846365878,298.663819078399
0.2875,679.23125492494,453.557922200582
0.3,797.508604907884,540.473724890341
0.3125,794.093562564597,545.476560215592
0.325,670.023157698378,467.038403550969
0.3375,444.672472911853,316.403285415661
0.35,152.73494937683,115.977854762548
0.3625,-161.136088377185,-104.009166249274
0.375,-449.12891722071,-310.049592812078
0.3875,-667.601610289693,-470.487551083408
0.4,-783.657527602244,-560.349794441952
0.4125,-780.116324622534,-565.262815784568
0.425,-658.057422061836,-483.729918961046
0.4375,-436.568510127395,-327.479660072983
0.45,-149.761610322919,-119.77539761112
0.4625,158.460029071843,108.023280528822
0.475,441.185499550854,321.242390936719
0.4875,655.551662517195,487.115352700629
0.5,769.306676900399,579.866768951942
0.5125,765.643648571358,584.688668070389
0.525,645.67340042366,500.112012417106
0.5375,428.191758585516,338.347251141101
0.55,146.705809948488,123.504320984908
0.5625,-155.695788967941,-111.974224227975
0.575,-432.960735292648,-332.22750571408
0.5875,-643.085401463749,-503.435827118592
0.6,-754.472692709528,-599.01469624044
0.6125,-750.688708404129,-603.741822007145
0.625,-632.888799137573,-516.182413100875
0.6375,-419.541891910737,-348.997704705395
0.65,-143.554725840409,-127.151439032869
0.6625,152.828617345344,115.85220648372
0.675,424.464288751007,343.000751614437
0.6875,630.217113616992,519.435971192889
0.7,739.164106447524,617.784450285629
0.7125,735.26502354187,622.417477810399
0.725,619.704813649025,531.922739390542
0.7375,410.632086410353,359.433126876232
0.75,140.310511763168,130.719415543806
0.7625,-149.865262312104,-119.653426760731
0.775,-415.70653445234,-353.563050231632
0.7875,-616.948300754642,-535.108346166763
0.8,-723.392338714937,-636.167937193135
0.812500000000001,-719.376903457611,-640.701850979734
0.825000000000001,-606.129972606605,-547.331804914207
0.837500000000001,-401.461684785462,-369.642189163635
0.850000000000001,-136.975500454421,-134.203025527026
0.862500000000001,146.805917675833,123.380748558657
0.875000000000001,406.678543407404,363.896337337959
0.887500000000001,603.297641081761,550.450388188761
0.900000000000001,707.161959969438,654.151397273195
0.912500000000001,703.034280971379,658.582843213206
0.925000000000001,592.169924756863,562.395489683177
0.937500000000001,392.033256010556,379.612642665968
0.950000000000001,133.559960540597,137.612036031038
0.962500000000001,-143.659391314465,-127.035692515599
0.975000000000001,-397.396067680634,-374.00559303874
0.987500000000001,-589.260076317854,-565.442111119632
1,-690.481887795558,-671.719615693087
1.0125,-686.241973186442,-676.045382568515
1.025,-577.832446219917,-577.10233080174
1.0375,-382.361542739829,-389.349417358429
1.05,-130.052723811083,-140.918737793455
1.0625,140.418410613011,130.606391914744
1.075,387.861600957477,383.876790250572
1.0875,574.846852098897,580.072132841899
1.1,673.361823077597,688.860554329667
1.1125,669.014933588416,693.077324658553
1.125,563.129206774544,591.438894583961
1.1375,372.4412188952,398.833758687252
1.15,126.466262970398,144.141863595424
1.1625,-137.086996822123,-134.093564405088
1.175,-378.080504410605,-393.503136264376
1.1875,-560.067703571676,-594.333003307003
1.2,-655.816418214158,-705.562138364195
1.2125,-651.365394017578,-709.668539755842
1.225,-548.07162745935,-605.402147481555
1.2375,-362.291489658586,-408.065216922141
1.25,-122.800184700243,-147.272944514562
1.2625,133.670746607672,137.49925203219
1.275,368.057972268162,402.872510801861
1.2875,544.940117429284,608.219557719401
1.3,637.859860279288,721.817528974692
1.3125,633.308383355971,725.810504609842
1.325,532.670780208856,618.982203309974
1.3375,351.912917858712,417.04151716253
1.35,119.057959163207,150.313678001474
1.3625,-130.165123281696,-140.81021050256
1.375,-357.808702172713,-411.996912339895
1.3875,-529.470945312484,-621.72074072573
1.4,-619.505270569402,-737.620040369153
1.4125,-614.854877076822,-741.49888475425
1.425,-516.931904047207,-632.172044643125
1.4375,-341.317637416249,-425.757838892134
1.45,-115.241677063078,-153.259505192526
1.4625,126.585849582737,144.038351313263
1.475,347.333562976859,420.858113148191
1.4875,513.667396045566,634.832003435912
1.5,600.759287702697,752.959806473677
1.5125,596.012350699163,756.720106514261
1.525,500.873520739787,644.971372024702
1.5375,330.49898342956,434.20129943085
1.55,111.350632562871,156.109002854397
1.5625,-122.922469137456,-147.174347989979
1.575,-336.641945888583,-429.460943022023
1.5875,-497.539602915998,-647.544515473591
1.6,-581.631470194436,-767.821975227354
1.6125,-576.791709028269,-771.463704171344
1.625,-484.493500920731,-657.357612097239
1.6375,-319.473428379093,-442.370072310002
1.65,-107.387667644624,-158.857056727706
1.6625,119.184416784005,150.217268124895
1.675,325.734251114871,437.786849115886
1.6875,481.092916202056,659.845598253221
1.7,562.134722532228,782.198730736475
1.7125,557.204866028801,785.715658312976
1.725,467.805148654435,669.323874109811
1.7375,308.244786982209,450.25988575601
1.75,103.352777062057,161.499385095811
1.7625,-115.362779385217,-153.163637090993
1.775,-314.617898449482,-445.833595836149
1.7875,-464.345723749026,-671.727279488117
1.8,-542.281177803293,-796.074291783549
1.8125,-537.265841164849,-799.467189638769
1.825,-450.821980415383,-680.865041987967
1.8375,-296.823500378448,-457.85999607823
1.85,-99.2639082367599,-164.050234944853
1.8625,111.477018054821,156.017773454731
1.875,303.304391582762,453.596425688556
1.8875,447.303865094337,683.180273859938
1.9,522.089956075894,809.447990603067
1.9125,516.990794463143,812.71056531116
1.925,433.558651235205,691.978763442275
1.9375,285.216479769677,465.171070867111
1.95,95.1100965258304,166.49320197995
1.9625,-107.51692897711,-158.769368641713
1.97499999999999,-291.802373951934,-461.07353414451
1.98749999999999,-429.984114394428,-694.200590558339
1.99999999999999,-501.572605282231,-822.310109211618
2.01249999999999,-496.39355278513,-825.444799427652
2.02499999999999,-416.025917790545,-702.655316854234
2.03749999999999,-273.432389592515,-472.193471441036
2.04999999999999,-90.8943184187272,-168.830163300567
2.06249999999999,103.490851147182,161.416434318028
2.07499999999999,280.121279575305,468.264280107346
2.08749999999999,412.393166126353,704.786696856569
2.09999999999999,480.740882301203,834.656340726571
2.11249999999999,475.484312339859,837.659253958342
2.12499999999999,398.22910422166,712.890553333194
2.13749999999999,261.476614205002,478.921440935382
2.14999999999999,86.6201787640152,171.061085848897
2.16249999999999,-99.3999099292921,-163.96853005755
2.17499999999999,-268.257768989241,-475.152444375269
2.18749999999999,-394.546895886423,-714.933590833693
2.19999999999999,-459.605635288908,-846.477769795298
2.21249999999999,-454.275958916637,-849.349627645936
2.22499999999999,-380.177540655067,-722.667042056763
2.23749999999999,-249.35509584946,-485.344745935249
2.24999999999999,-82.292406554439,-173.189299211232
2.26249999999999,95.2471763661321,166.418008138304
2.27499999999999,256.22674698624,481.745878161225
2.28749999999999,376.447919460104,724.625029548494
2.29999999999999,438.179159676058,857.761800014046
2.31249999999999,432.778137113206,860.498182678755
2.32499999999999,361.88823416364,731.996779113611
2.33749999999999,237.07101221672,491.448586974333
2.34999999999999,77.9152975445286,175.202890380794
2.36249999999999,-91.0328614018061,-168.759330584282
2.37499999999999,-244.034153328476,-488.034628670494
2.38749999999999,-358.110837245315,-733.852673195312
2.39999999999999,-416.47482957545,-868.499807710506
2.41249999999999,-411.007059060092,-871.096963918108
2.42499999999999,-343.372762811999,-740.857117822655
2.43749999999999,-224.638154393697,-497.242828351396
2.44999999999999,-73.4853005917872,-177.102546913485
2.46249999999999,86.7585679852943,170.988552982642
2.47499999999999,231.687202946876,494.010841456438
2.48749999999999,339.547808750252,742.615984006043
2.49999999999999,394.509697636592,878.684079597677
2.51249999999999,388.979210199498,881.143477313086
2.52499999999999,324.641538403829,749.246642160111
2.53749999999999,212.071428343638,502.734018996277
2.54999999999999,69.0074196290993,178.874929458739
2.56249999999999,-82.4298646550602,-173.106166710915
2.57499999999999,-219.19625716685,-499.669720171128
2.58749999999999,-320.774211339047,-750.909756845825
2.59999999999999,-372.299263877036,-888.313425237571
2.61249999999999,-366.710649512067,-890.634200594614
2.62499999999999,-305.709073549096,-757.162311165901
2.63749999999999,-199.370450695428,-507.904957134511
2.64999999999999,-64.4918667439379,-180.56304939245
2.66249999999999,78.0553306124975,175.135071632107
2.67499999999999,206.566775861421,505.013946211253
2.68749999999999,301.801738225534,758.72934334946
2.69999999999999,349.858196210234,897.386158153075
2.71249999999999,344.212912516191,899.567128634078
2.72499999999999,286.583711552293,764.604321381057
2.73749999999999,186.545451928985,512.754022528681
2.74999999999999,59.9359890708912,182.130210004668
2.76249999999999,-73.6322020220863,-177.044506856842
2.77499999999999,-193.81164103326,-510.045897490395
2.78749999999999,-282.638334713991,-766.070465426474
2.79999999999999,-327.195887708134,-905.89481383304
2.81249999999999,-321.497916820721,-907.932712424233
2.82499999999999,-267.278793347362,-771.568015629939
2.83749999999999,-173.598855258476,-517.277191185915
2.84999999999999,-55.3400284099699,-183.579569724979
2.86249999999999,69.1585314278064,178.831476145977
2.87499999999999,180.934744780136,514.769197429931
2.88749999999999,263.295785134887,772.926795073584
2.89999999999999,304.326532848966,913.830021392911
2.91249999999999,298.577910750614,915.723849979575
2.92499999999999,247.803736939015,778.03899846077
2.93749999999999,160.544255966355,521.474981524706
2.94999999999999,50.7084842158309,184.908063342522
2.96249999999999,-64.6425419783582,-180.510979443909
2.97499999999999,-167.940880327701,-519.145285605312
2.98749999999999,-243.788426427498,-779.30561198889
2.99999999999999,-281.26253949343,-921.184017345557
3.01249999999999,-275.46941416845,-922.932738516068
3.02499999999999,-228.171806187728,-784.012548001569
3.03749999999999,-147.38683086644,-525.342124322622
3.04999999999999,-46.0437462271104,-186.118490295404
3.06249999999999,60.0829213345515,182.078573903952
3.07499999999999,154.838439549907,523.195212007779
3.08749999999999,224.127120676677,785.179848084473
3.09999999999999,258.023316191478,927.95226823119
3.11249999999999,252.187895341183,929.553795359966
3.12499999999999,208.396861366725,789.489338229521
3.13749999999999,134.140117945184,528.871675619964
3.14999999999999,41.3535923516181,187.220714557728
3.16249999999999,-55.488910579355,-183.53344793025
3.17499999999999,-141.6405277687,-526.91395644134
3.18749999999999,-204.324931287208,-790.553031072454
3.19999999999999,-234.624097673278,-934.135089413589
3.21249999999999,-228.751060653303,-935.586515422871
3.22499999999999,-188.493066433701,-794.470900036198
3.23749999999999,-120.808865753924,-532.068639943207
3.24999999999999,-36.6384427279392,-188.198578952581
3.26249999999999,50.8584905022688,184.865571716397
3.27499999999999,128.356199318367,530.302582385654
3.28749999999999,184.397251488081,795.428517515641
3.29999999999999,211.079494506791,939.72796384142
3.31249999999999,205.171920292293,941.032580392456
3.32499999999999,168.473880202559,798.952236503405
3.33749999999999,107.402701991718,534.936530102448
3.34999999999999,31.8985965882901,189.057208081514
3.36249999999999,-46.199279929668,-186.080896306521
3.37499999999999,-114.993374598409,-533.359672972965
3.38749999999999,-164.352396364169,-799.806203037731
3.39999999999999,-187.402048427961,-944.731783867329
3.41249999999999,-181.463237453351,-945.888753678325
3.42499999999999,-148.345382286854,-802.930125407982
3.43749999999999,-93.9280046023598,-537.466413850722
3.44999999999999,-27.137467038676,-189.799051218787
3.46249999999999,41.5085055211845,187.184801765608
3.47499999999999,101.55572788373,536.073033592545
3.48749999999999,144.205103099923,803.685597416894
3.49999999999999,163.604755065364,949.140912496556
3.51249999999999,157.638304959615,950.15010150862
3.52499999999999,128.122834136776,806.400099309433
3.53749999999999,80.3930704033405,539.653107070815
3.54999999999999,22.3581521297146,190.425019036681
3.56249999999999,-36.7922622632293,-188.169239405174
3.57499999999999,-88.05276907358,-538.457978454984
3.58749999999999,-123.964441757132,-807.052608451663
3.59999999999999,-139.702888724694,-952.948501729791
3.61249999999999,-133.712525822724,-953.806278425358
3.62499999999999,-107.816906814072,-809.361768670231
3.63749999999998,-66.8068171838205,-541.500165842913
3.64999999999998,-17.5682026916755,-190.92003540449
3.66249999999998,32.0529427331916,189.033397385748
3.67499999999998,74.4932424838051,540.499603577182
3.68749999999998,103.645905207844,809.905564871896
3.69999999999998,115.712362220748,956.149683633178
3.71249999999998,109.702841588042,956.855269957679
3.72499999999998,87.4472163494666,811.808457717671
3.73749999999998,53.1777625785969,542.999420297189
3.74999999999998,12.7640011916175,191.297229537043
3.76249999999998,-27.2908792224227,-189.777729462862
3.77499999999998,-60.8884953967261,-542.193914288126
3.78749999999998,-83.2613711303553,-812.246099771204
3.79999999999998,-91.651076091896,-958.742635113131
3.81249999999998,-85.6261881599933,-959.298369457125
3.82499999999998,-67.0222449347106,-813.740803997053
3.83749999999998,-39.5190524081493,-544.16002551458
3.84999999999998,-7.95446489288157,-191.555053137897
3.86249999999998,22.5125379420053,190.403264669869
3.87499999999998,47.2474362483016,543.543218587461
3.88749999999998,62.8276863862778,814.073413193308
3.89999999999998,67.5342898973594,960.734356788612
3.91249999999998,61.4984979210798,961.138371609573
3.92499999999998,46.5580596057751,815.160480457924
3.93749999999998,25.8352723022791,544.979767892488
3.94999999999998,3.13820003491831,191.693363655606
3.96249999999999,-17.7222251474478,-190.901218013602
3.97499999999999,-33.5746382567494,-544.557513916664
3.98749999999999,-42.356684560742,-815.38874624491
3.99999999999999,-43.3764819768473,-962.12450657402
4.01249999999999,-37.3320917233238,-962.377459086661
4.02499999999999,-26.0621398342889,-816.068777052382
4.03749999999999,-12.1357449332542,-545.457470710217
4.04999999999999,1.67699920246391,-191.715813328338
4.06249999999999,12.9222925428662,191.287671575179
4.07499999999999,19.884327287852,545.227606402409
4.08749999999999,21.8565309024334,816.19484425201
4.09999999999999,19.1898265760044,962.909399083396
4.11249999999999,13.1404818029802,963.008992988891
4.12499999999999,5.54974528879902,816.471405311551
4.13749999999999,-1.5736473835959,545.587243042089
4.14999999999999,-6.49500094866846,191.614134119126
4.16249999999999,-8.11196146456889,-191.552375616647
4.17499999999999,-6.17876179584714,-545.555298778628
4.18749999999999,-1.34152806330644,-816.488201070624
4.19999999999999,5.01067254375786,-963.085901129465
4.21249999999999,11.0615380841504,-963.035740368105
4.22499999999999,14.9668198198442,-816.348629536358
4.23749999999999,15.2819184843809,-545.373959989141
4.24999999999999,11.3069880069355,-191.387123205387
4.26249999999999,3.29806317687575,191.694633623346
4.27499999999999,-7.53027676298984,545.540832860017
4.28749999999999,-19.1756955509841,816.25698580708
4.29999999999999,-29.2093552953598,962.653001940317
4.3125,-35.2559563336763,962.448727481104
4.325,-35.4731713984181,815.708339447768
4.3375,-28.980808276941,544.81374442763
4.35,-16.1136908619988,191.036434622785
4.3625,1.52189900011876,-191.715010210556
4.375,21.2376754886829,-545.172314272446
4.3875,39.6775752063954,-815.513590996915
4.4,53.3864772135297,-961.60633163246
4.4125,59.425644403153,-961.249685613677
4.425,55.9568118679282,-814.552781313011
4.4375,42.657251142691,-543.902760243516
4.45,20.9073850199192,-190.579195261348
4.4625,-6.33879093901297,191.61829469705
4.475,-34.9268701255584,544.460365370211
4.4875,-60.1538184013323,814.252614846107
4.5,-77.5276130611053,959.953148647973
4.5125,-83.5549929101167,959.444857592096
4.525,-76.4021732645613,812.884411729233
4.5375,-56.3078145304169,542.659847008342
4.55,-25.6857948346244,189.987836503018
4.5625,11.1508971965825,-191.394349051843
4.575,48.5939176404248,-543.407822556232
4.5875,80.5881658083595,-812.477149327039
4.6,101.617794986945,-957.697633028938
4.6125,107.631312458959,-957.039922272389
4.625,96.7964760226951,-810.704880179629
4.6375,69.9232607172574,-541.075949467737
4.65,30.4500729446036,-189.282544249622
4.66250000000001,-15.953784118711,191.05191234801
4.67500000000001,-62.2280240855746,542.016425086925
4.68750000000001,-100.974202904996,810.193821155371
4.70000000000001,-125.645111184619,954.841138705844
4.71250000000001,-131.640070206012,954.033482371668
4.72500000000001,-117.134674605854,808.018224666916
4.73750000000001,-83.4939984844788,539.147645908999
4.75000000000001,-35.1984066587913,188.459685765079
4.76250000000001,20.7505794512841,-190.597827442122
4.77500000000001,75.8239906794973,-540.272476489431
4.78750000000001,121.297625610085,-807.404471247318
4.80000000000001,149.594954365659,-951.384264660733
4.81250000000001,155.568409163031,-950.426016515304
4.82500000000001,137.399027694683,-804.821317421529
4.83750000000001,97.0135204571517,-536.877107868515
4.85000000000001,39.9233808216658,-187.516405492093
4.86250000000001,-25.531134944078,190.01110879133
4.87500000000001,-89.3771087592096,538.204530156564
4.88750000000001,-141.545114703479,804.101071325236
4.90000000000001,-173.450979938121,947.32413814217
4.91250000000001,-179.398694025499,946.215154150077
4.92500000000001,-157.577158382267,801.107109235286
4.93750000000001,-110.472681009763,534.273736195561
4.95000000000001,-44.6173453131174,186.448968684127
4.96250000000001,30.2961713527503,-189.308747435079
4.97500000000001,102.871754148974,-535.788358682136
4.98750000000001,161.701961310742,-800.286767406554
5.00000000000001,197.19599212564,-942.661095858856
5.01250000000002,203.113532405532,-941.401052822357
5.02500000000002,177.65139670705,-796.892128269163
5.03750000000002,123.858340729979,-531.31960023734
5.05000000000002,49.2893859919232,-185.26828242921
5.06250000000002,-35.0449741717674,188.488456867922
5.07500000000002,-116.297651877786,533.02799331163
5.08750000000002,-181.756882130355,795.967060222872
5.10000000000002,-220.813147917611,937.397554462416
5.11250000000002,-226.697105237038,935.992053586878
5.12500000000002,-197.613712683927,792.170775742673
5.13750000000002,-137.16492069918,528.034957838933
5.15000000000002,-53.9266470936579,183.970978885822
5.16250000000002,39.7692377734598,-187.547155321518
5.17500000000002,129.650060064126,-529.932885130139
5.18750000000002,201.692439971188,-791.140025743503
5.20000000000002,244.290648168501,-931.548700967865
5.21250000000002,250.1359156794,-929.994682207695
5.22500000000002,217.448017811601,-786.949807382133
5.23750000000002,150.386947919534,-524.422404475582
