"Time [ms]","InducedVoltage(Cos_Winding) [mV]","InducedVoltage(Sin_Winding) [mV]"
0,554.643860562189,-964.743974770089
0.0125,485.559536162926,-834.827734938009
0.025,416.475211763663,-704.911495105928
0.0375,282.838309032067,-468.31698077829
0.05,104.442645688599,-161.41600748569
0.0625,-91.8595116296937,168.887370078843
0.075,-276.161312044403,472.285504592371
0.0875,-420.09987175309,702.758054382322
0.1,-501.195007812249,825.541290222202
0.1125,-506.367872768375,822.380121692726
0.125,-434.041743431041,694.233963436457
0.1375,-294.511030335346,461.076968676568
0.15,-108.460013945561,158.741745613215
0.1625,96.0674350043624,-166.530017205584
0.175,287.933759404797,-465.206514038962
0.1875,437.612979707775,-691.993416497349
0.2,521.766486956172,-812.702852645647
0.2125,526.858304400552,-809.412093203934
0.225,451.339724818221,-683.124144475299
0.2375,305.99487416784,-453.535966442728
0.25,112.412383405475,-155.969274272152
0.2625,-100.221206641955,164.066812620505
0.275,-299.523613028423,457.833861524454
0.2875,-454.852755375776,680.793115102853
0.3,-542.007712386815,799.347690083691
0.3125,-547.016305842553,795.929696168441
0.325,-468.349281086538,671.577456772596
0.3375,-317.283939353025,445.707961125513
0.35,-116.292906967992,153.096131248529
0.3625,104.310240699598,-161.503837918784
0.375,310.923100686785,-450.168854422212
0.3875,471.80234141668,-669.153821267727
0.4,561.906751087852,-785.484732642967
0.4125,566.82537516599,-781.940607226598
0.425,485.059721401108,-659.600903238792
0.4375,328.37312660457,-437.597558153254
0.45,120.0942692163,-150.119628366359
0.4625,-108.32896812387,158.826166390797
0.475,-322.128807734991,442.218623433218
0.4875,-488.44893996525,657.092729599423
0.5,-581.445777251106,771.121178466669
0.5125,-586.273096077344,767.454793755893
0.525,-501.46015362952,647.205722373572
0.5375,-339.252799939609,429.212440619514
0.55,-123.827248381509,147.060300745893
0.5625,112.284646072598,-156.059319133385
0.575,333.126106237165,-433.985976267111
0.5875,504.787676754747,-644.615070739817
0.6,600.614869649695,-756.272892261069
0.6125,605.347252792864,-752.4852882733
0.625,517.548165037929,-634.408354031544
0.6375,349.914543906089,-420.553516805143
0.65,127.478632385848,-143.906548472758
0.6625,-116.167134754156,153.189767103699
0.675,-343.911136790866,425.480925715395
0.6875,-520.805208274089,631.733867546238
0.7,-619.405115033883,740.949148087234
0.7125,-624.043086047444,737.04572413307
0.725,-533.305397015598,621.210953630297
0.7375,-360.361265766715,411.635040641604
0.75,-131.050028759907,140.658391214383
0.7625,119.972249930217,-150.222917179838
0.775,354.485130288467,-416.714610311174
0.7875,536.494320789174,-618.451662700942
0.8,637.80807731228,-725.160920295887
0.812500000000001,642.346684332613,-721.14095040599
0.825000000000001,548.730454604292,-607.621416354844
0.837500000000001,370.580900005924,-402.454821569381
0.850000000000001,134.537247412735,-137.32006629466
0.862500000000001,-123.703765317953,147.160968551078
0.875000000000001,-364.829320290488,407.677330188844
0.887500000000001,-551.852287194533,604.786100125587
0.900000000000001,-655.809914326411,708.912856590566
0.912500000000001,-660.245732697192,704.780492933035
0.925000000000001,-563.809399973264,593.646259476896
0.937500000000001,-380.561202061428,393.015787772227
0.950000000000001,-137.949306832852,133.900412508396
0.962500000000001,127.362860643121,-144.01135848864
0.975000000000001,374.948400037506,-398.384165103196
0.987500000000001,566.859028534156,-590.73324202719
1,673.395353123674,-692.214187903042
1.0125,677.725314576732,-687.969708388343
1.025,578.530301811204,-579.29257560308
1.0375,390.306939479651,-383.332486163319
1.05,141.258881914362,-130.389078896455
1.0625,-130.936925762385,140.76635003859
1.075,-384.829330795979,388.839371152202
1.0875,-581.502721748449,576.303342081668
1.1,-690.552460288192,675.074786570282
1.1125,-694.773139381396,670.722899302285
1.125,-592.880015517524,564.572229119755
1.1375,-399.800054812058,373.401232564309
1.15,-144.484831192439,126.798062619655
1.1625,134.427330744043,-137.431262280148
1.175,394.464510575408,-379.046809917586
1.1875,595.776822394463,-561.507369743028
1.2,707.269378003523,-657.508982457654
1.2125,711.379368640185,-653.052545314433
1.225,606.855964224217,-549.497065578192
1.2375,409.03959013932,-363.239061387246
1.25,147.61884463871,-123.127937291639
1.2625,-137.836282241013,134.011531235008
1.275,-403.84240476527,369.012515587436
1.2875,-609.675963778868,546.361861092128
1.3,-723.53911771052,639.530702408378
1.3125,-727.535576438134,634.973733982374
1.325,-620.44783983591,534.077587595245
1.3375,-418.023948359464,352.848277590575
1.35,-150.662273830398,119.380810502517
1.3625,141.150046944566,-130.501681291215
1.375,412.975185268795,-358.750938458446
1.3875,623.1890181322,-530.8738195586
1.4,739.355388971667,-621.153971114301
1.4125,743.237573756977,-616.497935101277
1.425,633.648601763944,-518.319339454037
1.4375,426.747536203947,-342.239705878983
1.45,153.61026477751,-115.559466689637
1.4625,-144.381173872367,126.917908308611
1.475,-421.843702933869,348.263047836451
1.4875,-636.311192841169,515.0507283922
1.5,-754.707907744128,602.384763293111
1.5125,-758.471199229119,597.631932454509
1.525,-646.458439077537,502.240829905104
1.5375,-435.19731022905,331.407322819566
1.55,-156.461736291302,111.663794715586
1.5625,147.520039267613,-123.250251311847
1.575,430.453350574176,-337.557911887565
1.5875,649.033623959948,-498.902732311132
1.6,769.581671914223,-583.232985089791
1.6125,773.225896650331,-578.386939774173
1.625,658.854196988342,-485.840404060523
1.6375,443.37192701961,-320.36775884389
1.65,159.21131736628,-107.695854053049
1.6625,-150.565095620353,119.506923153241
1.675,-438.785967228838,326.637194198228
1.6875,-661.343748991965,482.435664268192
1.7,-783.968527107801,563.711175772628
1.7125,-787.487965019429,558.775273782968
1.725,-670.828583624759,469.130545488484
1.7375,-451.267640427942,309.125237371982
1.75,-161.855189385289,103.655758913634
1.7625,153.514213076938,-115.68100799823
1.775,446.837935881986,-315.506495567633
1.7875,673.233961839868,-465.667016376091
1.8,797.853268583908,-543.83229627492
1.8125,801.248833561003,-538.810714328378
1.825,682.377456342075,-452.125943433052
1.8375,458.872532916026,-297.689081856104
1.85,164.407608157117,-99.5610346750611
1.8625,-156.370524438682,111.790395988164
1.875,-454.605919182173,304.17805136362
1.8875,-684.694145496025,448.603224038971
1.9,-811.235842816239,523.615103513601
1.9125,-814.500757027607,518.50944425653
1.925,-693.497907083305,434.839922723227
1.9375,-466.187609254147,286.066476693563
1.95,-166.852500127599,95.4023150433761
1.9625,159.123960986788,-107.825231947306
1.97499999999999,462.088041566251,-292.66104154912
1.98749999999999,695.720910336816,-431.260559356379
1.99999999999999,824.105861559477,-503.071326475777
2.01249999999999,827.242404116142,-497.885297419346
2.02499999999999,704.181162312927,-417.284033175034
2.03749999999999,473.213836419576,-274.267334111249
2.04999999999999,169.190304224172,-91.1806602675079
2.06249999999999,-161.772055622833,103.793569821953
2.07499999999999,-469.28342373098,280.964814066741
2.08749999999999,-706.313335988961,413.646607239938
2.09999999999999,-836.458892717857,482.212334408301
2.11249999999999,-839.463213928752,476.948509989433
2.12499999999999,-714.421745490176,399.463530862557
2.13749999999999,-479.945808915439,262.295356923638
2.14999999999999,-171.421871643709,86.9012224802782
2.16249999999999,164.325963421143,-99.6971434932627
2.17499999999999,476.174940837752,-269.085867887524
2.18749999999999,716.465698428712,-395.776854664468
2.19999999999999,848.286038277181,-461.048754773658
2.21249999999999,851.159354429481,-455.711960848372
2.22499999999999,724.201411847896,-381.388100483213
2.23749999999999,486.373065893844,-250.157690538052
2.24999999999999,173.550374565892,-82.5674606322808
2.26249999999999,-166.777387717588,95.5394512441578
2.27499999999999,-482.770820629876,257.038418961478
2.28749999999999,-726.161256992897,377.653705731157
2.29999999999999,-859.574742408245,439.593637077542
2.31249999999999,-862.312139928788,434.185638082296
2.32499999999999,-733.535574621519,363.074740201548
2.33749999999999,-492.477490128449,237.856899321032
2.34999999999999,-175.56526471177,78.1837483527367
2.36249999999999,169.120231407051,-91.3188677130698
2.37499999999999,489.062248315322,-244.829929094256
2.38749999999999,735.391610434425,-359.291974379215
2.39999999999999,870.316380246791,-417.860255283555
2.41249999999999,872.913999172993,-412.385487586652
2.42499999999999,742.398673276617,-344.534163283863
2.43749999999999,498.272653070694,-225.408047258091
2.44999999999999,177.465451615229,-73.747680704555
2.46249999999999,-171.34949868716,87.0394852001353
2.47499999999999,-495.040751305143,232.465830180805
2.48749999999999,-744.157374256958,340.704196044068
2.49999999999999,-880.503153924959,395.865867867976
2.51249999999999,-882.962874277118,390.327898655443
2.52499999999999,-750.789758083016,325.778158765825
2.53749999999999,-503.76564958172,212.823609841805
2.54999999999999,-179.235950857105,69.2647929428531
2.56249999999999,173.465878031294,-82.7054784793282
2.57499999999999,500.701151914165,-219.958211756324
2.58749999999999,752.453154353922,-321.905460886583
2.59999999999999,890.134049537893,-373.625309543924
2.61249999999999,892.455326611759,-368.029144293246
2.62499999999999,758.706425477592,-306.820032645068
2.63749999999999,508.937520023505,-200.10611016333
2.64999999999999,180.925426869863,-64.7423427885071
2.66249999999999,-175.497513866837,78.3243781605286
2.67499999999999,-506.045360778615,207.312176138237
2.68749999999999,-760.273931910007,302.906983626784
2.69999999999999,-899.207893485616,351.15409237269
2.71249999999999,-901.389169082407,345.500984252316
2.72499999999999,-766.14871973248,287.668351189324
2.73749999999999,-513.786254607189,187.26355950991
2.74999999999999,-182.492747353634,60.179872046187
2.76249999999999,177.407726745356,-73.8947877072411
2.77499999999999,511.077604559953,-194.539559177867
2.78749999999999,767.615039311699,-283.717762686612
2.79999999999999,907.716521216532,-328.460657835294
2.81249999999999,909.754353318304,-322.754751161212
2.82499999999999,773.111981828033,-268.336860426694
2.83749999999999,518.30847917303,-174.299302120982
2.84999999999999,183.941829692632,-55.5782620559681
2.86249999999999,-179.19458357492,69.4163098711431
2.87499999999999,-515.802098135153,181.644001893301
2.88749999999999,-774.469542306032,264.349185400695
2.89999999999999,-915.65042107414,305.559678956331
2.91249999999999,-917.543757466803,299.803402834362
2.92499999999999,-779.581399982797,248.835085183241
2.93749999999999,-522.504765249853,161.226347837278
2.94999999999999,-185.269049232085,50.9403093492925
2.96249999999999,180.873690110397,-64.8939302989269
2.97499999999999,520.175806538546,-168.633092215681
2.98749999999999,780.847182536797,-244.813775310111
2.99999999999999,923.002293822921,-282.464347735367
3.01249999999999,924.749670709468,-276.663044966273
3.02499999999999,785.552144773003,-229.176144125533
3.03749999999999,526.370185346257,-148.050826958627
3.04999999999999,186.477924882386,-46.2687094682869
3.06249999999999,-182.439781126316,60.3274253012091
3.07499999999999,-524.223995305696,155.512715781826
3.08749999999999,-786.719320791485,225.125662819819
3.09999999999999,-929.766829580355,259.192921916984
3.11249999999999,-931.367059302902,253.349503402303
3.12499999999999,-791.025560884418,209.374218968712
3.13749999999999,-529.897273450588,134.78539672991
3.14999999999999,-187.580275513211,41.572409755311
3.16249999999999,183.895374097043,-55.7272650352719
3.17499999999999,527.940976252218,-142.296915674081
3.18749999999999,792.088596961832,-205.296324563989
3.19999999999999,935.94522293263,-235.761023883073
3.21249999999999,937.395267575488,-229.880042905362
3.22499999999999,796.003339267456,-189.442722938849
3.23749999999999,533.091187761097,-121.435981471589
3.24999999999999,188.556626560202,-36.8504704394397
3.26249999999999,-185.226594806921,51.0905182266493
3.27499999999999,-531.326992219484,128.993847708551
3.28749999999999,-796.959817619296,185.340972021388
3.29999999999999,-941.533017624892,212.183880043065
3.31249999999999,-942.836333382105,206.267926766526
3.32499999999999,-800.479893424907,169.395489865086
3.33749999999999,-535.956076762618,108.011552450573
3.34999999999999,-189.413476927879,32.1040067043996
3.36249999999999,186.440893278613,-46.4248738011089
3.37499999999999,534.381238925279,-115.612494909775
3.38749999999999,801.332782481016,-165.26830997746
3.39999999999999,946.530866919458,-188.473297343039
3.41249999999999,947.686176741982,-182.526024430666
3.42499999999999,804.452238204965,-149.238614875336
3.43749999999999,538.481961387058,-94.5176192459165
3.44999999999999,190.154295473392,-27.3365034735849
3.46249999999999,-187.544137150987,41.7277767423601
3.47499999999999,-537.091144454502,102.156046574762
3.48749999999999,-805.206603493625,145.092511622321
3.49999999999999,-950.932787824726,164.642427274198
3.51249999999999,-951.939943117546,158.667478455287
3.52499999999999,-807.915685848386,128.987682604231
3.53749999999999,-540.664504136017,80.9635104148295
3.54999999999999,-190.77786442518,22.5502808843102
3.56249999999999,188.527870331446,-37.0048830236209
3.57499999999999,539.471420389259,-88.6340438992811
3.58749999999999,808.566646830587,-124.823294427727
3.59999999999999,954.732061091472,-140.706731195935
3.61249999999999,955.587693883676,-134.707978652361
3.62499999999999,810.869795468951,-108.652986252309
3.63749999999998,542.505522895694,-67.3578676313466
3.64999999999998,191.270979343536,-17.7531310490096
3.66249999999998,-189.389660635735,32.258504870677
3.67499999999998,-541.508537820607,75.0554043566714
3.68749999999998,-811.411768027496,104.47582767492
3.69999999999998,-957.924026231105,116.682226814951
3.71249999999998,-958.627055804339,110.66420856892
3.72499999999998,-813.30786498073,88.2543198579267
3.73749999999998,-543.999439428362,53.709806775493
3.74999999999998,-191.64608168576,12.942302682064
3.76249999999998,190.132266288373,-27.4900913196701
3.77499999999998,543.196851647928,-61.4312428829643
3.78749999999998,813.744303338857,-84.0625631858051
3.79999999999998,960.507021747502,-92.586740629143
3.81249999999998,961.059792779787,-86.5533815517802
3.82499999999998,815.231845029271,-67.800380644175
3.83749999999998,545.153380010203,-40.0315187809686
3.84999999999998,191.901363974101,-8.12620568024483
3.86249999999998,-190.755446354127,22.7052658535411
3.87499999999998,-544.540622238905,47.7707648287546
3.88749999999998,-815.56268910591,63.5998052534753
3.89999999999998,-962.487625224332,68.4356507981345
3.91249999999998,-962.888847455087,62.3913238794919
3.92499999999998,-816.641685772337,47.3071401946935
3.93749999999998,-545.967344753311,26.3284873617483
3.94999999999998,-192.037291454934,3.30281840776046
3.96249999999999,191.251901487838,-17.9077610343242
3.97499999999999,545.548442193525,-34.0790342250453
3.98749999999999,816.86835940235,-43.0994272224309
3.99999999999999,963.866467481964,-44.2435474371822
4.01249999999999,964.116416713372,-38.1904411818794
4.02499999999999,817.540008796307,-26.7819326840114
4.03749999999999,546.437598900043,-12.6092903458872
4.04999999999999,192.056946291898,1.51963944417278
4.06249999999999,-191.636271579177,13.1010661572317
4.07499999999999,-546.211865520824,20.3689162577048
4.08749999999999,-817.663932067948,22.5702034339249
4.09999999999999,-964.638902665832,20.0218389374269
4.11249999999999,-964.735246424417,13.9638323554341
4.12499999999999,-817.931456682891,6.23973933994074
4.13749999999999,-546.559580003386,-1.12030966132181
4.14999999999999,-191.952542279638,-6.34421718872959
4.16249999999999,191.899034186984,-8.28399627485849
4.17499999999999,546.532360314747,-6.64312552613599
4.18749999999999,817.94554923302,-2.0256082808942
4.19999999999999,964.801882788531,4.21368521714648
4.21249999999999,964.74791594112,10.2733136702045
4.22499999999999,817.796877453149,14.3067082691257
4.23749999999999,546.338477008398,14.8484801735592
4.24999999999999,191.721888274461,11.1632688343764
4.26249999999999,-192.038250751704,3.46274614595955
4.27499999999999,-546.509929288442,-7.08538585647313
4.28749999999999,-817.702855197987,-18.5218582709522
4.29999999999999,-964.354124572121,-28.4472730030444
4.3125,-964.14622541679,-34.5028627827362
4.325,-817.143755214217,-34.8428902901315
4.3375,-545.769908265039,-28.5673821815263
4.35,-191.368244989865,-15.9769914938436
4.3625,192.056329540273,1.36452250906078
4.375,546.132997038872,20.8126203647053
4.3875,816.946512041381,39.0533605282227
4.4,963.292296398339,52.6596233826274
4.4125,962.931857367933,58.7077511201339
4.425,815.975197077997,55.3560215307087
4.4375,544.849892393519,42.2637392732196
4.45,190.907537709545,20.7776044205458
4.4625,-191.956877538358,-6.18803320159643
4.475,-545.412184181197,-34.5220915725953
4.4875,-815.672177064764,-59.5590377087815
4.5,-961.623246893532,-76.8359539530101
4.5125,-961.111092553594,-82.8721018481342
4.525,-814.293140591262,-75.8313448436941
4.5375,-543.597041435037,-55.9340001436585
4.55,-190.313213519792,-25.5632661807946
4.5625,191.729349048162,11.0070739013195
4.575,544.35084093552,48.2089889743368
4.5875,813.882732873896,80.0234395178895
4.6,959.351566371457,100.961210714967
4.6125,958.68939520255,106.983183075472
4.625,812.099533615711,96.25597364861
4.6375,542.004098982618,69.5693930788977
4.65,189.604043664236,30.3346634031316
4.66250000000001,-191.383770847038,-15.8168030536214
4.67500000000001,-542.949710012803,-61.862721781478
4.68750000000001,-811.585505029772,-100.439603147669
4.70000000000001,-956.478086700547,-125.024085374043
4.71250000000001,-955.665732539045,-131.027829892882
4.72500000000001,-809.397563844431,-116.623672581246
4.73750000000001,-540.065630481582,-83.1611556380067
4.75000000000001,-188.777979316883,-35.0900831842249
4.76250000000001,190.925977207369,20.6200993711847
4.77500000000001,541.196797484208,75.479624016278
4.78750000000001,808.781172090863,120.793280546624
4.80000000000001,953.002960525683,149.009737512865
4.81250000000001,952.040083310982,154.992168771771
4.82500000000001,806.184828399073,136.918128498383
4.83750000000001,537.784962924719,96.7007613311742
4.85000000000001,187.830599845777,39.8224389871828
4.86250000000001,-190.336985777731,-25.408518365002
4.87500000000001,-539.117815067573,-89.0524589462793
4.88750000000001,-805.461701565854,-141.071030282213
4.90000000000001,-948.923973187427,-172.901490202264
4.91250000000001,-947.810253929409,-178.858117724067
4.92500000000001,-802.454942915636,-157.127322516843
4.93750000000001,-535.169822322687,-110.178808093781
4.95000000000001,-186.758470395158,-44.5241101607443
4.96250000000001,189.630419203125,30.1806873071434
4.97500000000001,536.690931074541,102.567400063986
4.98750000000001,801.630846103104,161.258095180872
5.00000000000001,944.241294300251,196.68217614965
5.01250000000002,942.976498359311,202.608600253503
5.02500000000002,798.22296589218,177.231586089036
5.03750000000002,532.204342335583,123.585266191675
5.05000000000002,185.573901912825,49.2019234375347
5.06250000000002,-188.806588285901,-34.9358716035984
5.07500000000002,-533.918950356288,-116.01360678611
5.08750000000002,-797.29429180008,-181.342941914418
5.10000000000002,-938.957879163041,-220.334955928575
5.11250000000002,-937.547142631254,-226.22769387813
5.12500000000002,-793.484617513641,-197.223938589517
5.13750000000002,-528.907994721751,-136.912501114331
5.15000000000002,-184.27239502218,-53.8460938423157
5.16250000000002,187.860872501869,39.6674669136427
5.17500000000002,530.812671820603,129.385822379977
5.18750000000002,792.450276123981,201.308975630635
5.20000000000002,933.08833054833,243.847962761351
5.21250000000002,931.529169872161,249.70221154182
5.22500000000002,788.245761609913,217.088555784799
5.23750000000002,525.28408806756,150.154606245917
