"Time [ms]","InducedVoltage(Cos_Winding) [V]","InducedVoltage(Sin_Winding) [V]"
0,-0.00205965996398031,-1.10946756046575
0.0125,0.00306795433010926,-0.962856079101644
0.025,0.00819556862419883,-0.816244597737535
0.0375,0.0107636008663977,-0.545346036696862
0.05,0.00972814842868083,-0.191431948486351
0.0625,0.00489071417390745,0.191614443707453
0.075,-0.00300454983971343,0.54544559383437
0.0875,-0.0124072917177765,0.81619082049065
0.1,-0.0212341448928482,0.962627805124191
0.1125,-0.0272886294245125,0.962475830704108
0.125,-0.0287274880574874,0.815777096292171
0.1375,-0.0244790862711394,0.544909848493335
0.15,-0.0145397214547407,0.191123751574783
0.1625,-7.25668257635267e-05,-0.191674039991427
0.175,0.0167259624839131,-0.545199231731792
0.1875,0.0329364000511035,-0.815621345748013
0.2,0.0454451295266885,-0.961791910728063
0.2125,0.0514942643585616,-0.961487647368367
0.225,0.0492428775357539,-0.814802122748977
0.2375,0.0381816192432056,-0.544120261942397
0.25,0.0193441214254026,-0.190699537752134
0.2625,-0.00475156574262505,0.191617644721754
0.275,-0.030435992719608,0.544606338984019
0.2875,-0.0534467146301081,0.814540229748455
0.3,-0.0696286095577222,0.960345357488795
0.3125,-0.0756694320916428,0.959888764941493
0.325,-0.0697269816678033,0.813307320066585
0.3375,-0.0518591833951245,0.542984626930762
0.35,-0.0241366470244532,0.190152439633887
0.3625,0.00956981719808967,-0.191440943009476
0.375,0.0441273060551248,-0.54366832818443
0.3875,0.0739251413923974,-0.812935237829282
0.4,0.0937699796205382,-0.958288643682358
0.4125,0.099795961961792,-0.95767889513641
0.425,0.0901674179759843,-0.811290567854472
0.4375,0.0655046187001093,-0.541507615843249
0.45,0.0289126379870691,-0.189475447176773
0.4625,-0.0143839575389038,0.191131930508855
0.475,-0.0577937657214195,0.542386677071111
0.4875,-0.0943527341478933,0.810813284097256
0.5,-0.117850179361667,0.955620635463496
0.5125,-0.123858280778243,0.954859728529024
0.525,-0.110548924390694,0.808758830364173
0.5375,-0.0791066216287226,0.539687161993535
0.55,-0.0336709830621864,0.188693052015694
0.5625,0.0191886368282322,-0.190713449172838
0.575,0.071421289339892,-0.54075627772336
0.5875,0.114722119055511,-0.808179558562479
0.6,0.141852764782269,-0.952349488572801
0.6125,0.147839221499246,-0.951437018315428
0.625,0.130861403508756,-0.805723672239817
0.6375,0.0926568862731369,-0.537521427526277
0.65,0.0384052441266908,-0.187790240484597
0.6625,-0.0239811298657414,0.190170537195157
0.675,-0.0850012235728133,0.538785300635815
0.6875,-0.135015387943885,0.805036817532786
0.7,-0.165765014225761,0.948479704320509
0.7125,-0.171727791891633,0.947419631976127
0.725,-0.151087287451439,0.802178318532804
0.7375,-0.106150550185242,0.53502581523818
0.75,-0.0431179421871015,0.186763946094063
0.7625,0.028755550483853,-0.18950317592748
0.775,0.0985288824371901,-0.536484464219308
0.7875,0.155224792051263,-0.801384730913241
0.8,0.189574346942173,-0.944015341900605
0.812500000000001,0.195509295214384,-0.942805408066305
0.825000000000001,0.171221658969658,-0.798128655662703
0.837500000000001,0.119578486449368,-0.532190713666438
0.850000000000001,0.0478027832079269,-0.185619778809981
0.862500000000001,-0.0335136071803179,0.18871924803794
0.875000000000001,-0.111993249871631,0.533835235049186
0.887500000000001,-0.175339111575758,0.797236113751929
0.900000000000001,-0.213266255470953,0.938953960474404
0.912500000000001,-0.219168495154564,0.937595582605873
0.925000000000001,-0.191249312313911,0.793574761797773
0.937500000000001,-0.132928695390816,0.529012396200153
0.950000000000001,-0.052463361771268,0.184365302271651
0.962500000000001,0.0382526874233877,-0.187823535695267
0.975000000000001,0.125390911547245,-0.530850617590364
0.987500000000001,0.19534307000459,-0.792578301816939
1,0.236823195912863,-0.933295588880346
1.0125,0.242689789951312,-0.931788147196109
1.025,0.21115653094967,-0.788513606589636
1.0375,0.146198573760015,-0.525504725529867
1.05,0.0570809215772943,-0.182982450022585
1.0625,-0.0429661661811872,0.186800969887454
1.075,-0.138708031753676,0.527532187658869
1.0875,-0.215221721430643,0.787412524483523
1.1,-0.260229897183633,0.927043248401239
1.1125,-0.266055842220703,0.925387833957837
1.125,-0.230926124460406,0.782950251624797
1.1375,-0.159373443295592,0.521659075639685
1.15,-0.0616661893387641,0.181488088929902
1.1625,0.0476523154217425,-0.185659795792153
1.175,0.151936818241635,-0.523875487995464
1.1875,0.234963344722395,-0.781747373155188
1.2,0.283469121240418,-0.92020259430165
1.2125,0.28925164319449,-0.918401520610222
1.225,0.250549509235821,-0.776895282295327
1.2375,0.172444690283921,-0.517485842762131
1.25,0.0662112248766875,-0.17988126062128
1.2625,-0.0523104399885402,0.184405424167065
1.275,-0.165063229158831,0.519882805785369
1.2875,-0.2545556485253,0.775593145588895
1.3,-0.306527750284765,0.912782531822646
1.3125,-0.312262126925005,0.910838305149352
1.325,-0.270012733728206,0.77035110242633
1.3375,-0.185408868325793,0.512989769683987
1.35,-0.0707167425863582,0.178160773121505
1.3625,0.056930535858172,-0.183026308293546
1.375,0.178091991575865,-0.515571257034929
1.3875,0.27398503294523,-0.768949721431746
1.4,0.329392911551909,-0.904792664696095
1.4125,0.335077886511208,-0.902706073795341
1.425,0.289306716494374,-0.763319392149567
1.4375,0.198256828516105,-0.508173834472005
1.45,0.0751764330248058,-0.176328608486238
1.4625,-0.0615164415551063,0.181540150095596
1.475,-0.191004916535862,0.510932650403681
1.4875,-0.293243661076693,0.761822577434715
1.5,-0.352052845796714,0.896232532023452
1.5125,-0.357683289079811,0.894003326500394
1.525,-0.308422767980848,0.755815396419342
1.5375,-0.210979142596885,0.503028591181357
1.55,-0.079589667597747,0.174385972298443
1.5625,0.0660643071657311,-0.179937527521703
1.575,0.203801858333349,-0.505976347647545
1.5875,0.312318995952794,-0.754215834250044
1.6,0.374489706221285,-0.887103578033547
1.6125,0.38006397456031,-0.884733386972843
1.625,0.327341112444465,-0.747827845488386
1.6375,0.223567408009317,-0.497566459869497
1.65,0.0839510276140438,-0.172328466120584
1.6625,-0.0705695712581506,0.178220174014994
1.675,-0.216467168347142,0.500697046588163
1.6875,-0.331196026836612,0.74612790301069
1.7,-0.396690756657597,0.877411035870783
1.7125,-0.402201821290994,0.874901265189893
1.725,-0.346049979199754,0.739361356213523
1.7375,-0.236015565074767,0.4917915794084
1.75,-0.0882568991553365,0.170155794806999
1.7625,0.0750319229068189,-0.176386582693015
1.775,0.228994762077031,-0.495095368873318
1.7875,0.349861666681244,-0.737568688110028
1.8,0.418635913526613,-0.867159356976019
1.8125,0.424082668600523,-0.864513975339164
1.825,0.364537979696377,-0.730428675561004
1.8375,0.248309460778911,-0.485702508887508
1.85,0.0925117892682901,-0.167890669367039
1.8625,-0.079447444796695,0.174449793219967
1.875,-0.241375901484633,0.489180721516382
1.8875,-0.36830263253837,0.728540160682285
1.9,-0.440315920045115,0.856365154744326
1.9125,-0.44569150745074,0.853582210692391
1.925,-0.382796565117862,0.72103877043818
1.9375,-0.260445826788902,0.479307518730907
1.95,-0.0967046186775309,0.16551769184544
1.9625,0.0838107436309549,-0.172397132895353
1.97499999999999,0.253603689099154,-0.482961642940945
1.98749999999999,0.386508338348386,-0.719054178437231
1.99999999999999,0.461715747478688,-0.845033238442305
2.01249999999999,0.467020187684675,-0.842116478736963
2.02499999999999,0.40081138249501,-0.711198341391179
2.03749999999999,0.272420566189175,-0.472616864959575
2.04999999999999,0.100836680097713,-0.163035220671655
2.06249999999999,-0.0881166190983025,0.170232758000646
2.07499999999999,-0.265672794018332,0.476444943108464
2.08749999999999,-0.404473694218961,0.709118408201617
2.09999999999999,-0.48282570970473,0.833170797430183
2.11249999999999,-0.488054805846363,0.830121177160938
2.12499999999999,-0.418575181357859,0.700908428559666
2.13749999999999,-0.284226317132281,0.465630866255322
2.14999999999999,-0.104905792942821,0.160450406095374
2.16249999999999,0.0923726584157353,-0.167967809965421
2.17499999999999,0.277570967256735,-0.469617569261121
2.18749999999999,0.42218578908423,-0.698742106763083
2.19999999999999,0.503632683095824,-0.820783393062365
2.21249999999999,0.508785164014771,-0.817605801947588
2.22499999999999,0.436068038718649,-0.690167367021421
2.23749999999999,0.295851398896106,-0.458350194259073
2.24999999999999,0.108912951049748,-0.15776649511949
2.26249999999999,-0.096570846686782,0.165599147191515
2.27499999999999,-0.289297342479539,0.462496757362588
2.28749999999999,-0.439629586634934,0.687918594380866
2.29999999999999,-0.524119777499557,0.807875360361554
2.31249999999999,-0.529190350843033,0.804568040602221
2.32499999999999,-0.45329427046526,0.678999519661909
2.33749999999999,-0.307279307226223,0.450764843248749
2.34999999999999,-0.112846673251519,0.154985281429461
2.36249999999999,0.100706088455489,-0.163121637266072
2.37499999999999,0.300840786525646,-0.455086502785067
2.38749999999999,0.456790862932418,-0.676655490193312
2.39999999999999,0.5442728644949,-0.794454055646536
2.41249999999999,0.549256310696035,-0.791018287440637
2.42499999999999,0.470227022438699,-0.667399605711582
2.43749999999999,0.3185141923778,-0.442897499662189
2.44999999999999,0.116707029188175,-0.152100555049961
2.46249999999999,-0.104773491074315,0.160534528668819
2.47499999999999,-0.312191012985265,0.447385802335823
2.48749999999999,-0.473662970083536,0.664966316599407
2.49999999999999,-0.564077081226114,0.780529301178809
2.51249999999999,-0.568972707756916,0.776970539126496
2.52499999999999,-0.486859689926655,0.65537720606689
2.53749999999999,-0.329554929151492,0.434764844590593
2.54999999999999,-0.120479620322937,0.149106385501297
2.56249999999999,0.108771354842146,-0.15784197996995
2.57499999999999,0.323338036100066,-0.439401360797238
2.58749999999999,0.490234040178809,-0.652860780662039
2.59999999999999,0.583523516704701,-0.766114854775537
2.61249999999999,0.588328169667394,-0.762437217415795
2.62499999999999,0.503182775976048,-0.642943715248338
2.63749999999999,0.340384732214684,-0.426355377943591
2.64999999999999,0.124200298935117,-0.146044023598828
2.66249999999999,-0.112717845736061,0.155073338661613
2.67499999999999,-0.334281133571507,0.431137823691981
2.68749999999999,-0.506493772057022,0.640345599277066
2.69999999999999,-0.602603226140669,0.751223573459303
2.71249999999999,-0.607315007581055,0.747427257715483
2.72499999999999,-0.519192159219866,0.630107083930758
2.73749999999999,-0.350997184396149,0.417675753557382
2.74999999999999,-0.127835990155278,0.142884340636703
2.76249999999999,0.116583468546569,-0.152198485500965
2.77499999999999,0.345018016120397,-0.422611305193698
2.78749999999999,0.522434245321009,-0.627425772104718
2.79999999999999,0.621304612076044,-0.735858873923529
2.81249999999999,0.625918940861313,-0.731944865216819
2.82499999999999,0.534876129669077,-0.616877235529079
2.83749999999999,0.361388544276838,-0.408728137001744
2.84999999999999,0.131389682591785,-0.139630390986339
2.86249999999999,-0.120368027001223,0.149217669560916
2.87499999999999,-0.355549010268385,0.413827236313352
2.88749999999999,-0.538043571095531,0.614107432853618
2.89999999999999,-0.639612689789837,0.720028290851433
2.91249999999999,-0.644127432766236,0.715997761305781
2.92499999999999,-0.55021878703215,0.603252877342133
2.93749999999999,-0.371551959661085,0.399525769931032
2.94999999999999,-0.134856285055076,0.136283602151996
2.96249999999999,0.124080482673642,-0.146147468419684
2.97499999999999,0.365836088971294,-0.404764408510075
2.98749999999999,0.553323608358605,-0.600409885030176
2.99999999999999,0.657514285267183,-0.703738249616466
3.01249999999999,0.661925994923931,-0.699596732170862
3.02499999999999,0.565209129687697,-0.589242813431539
3.03749999999999,0.381480145956371,-0.390069703538978
3.04999999999999,0.138237650822415,-0.132849902002909
3.06249999999999,-0.127717718295478,0.142984141806485
3.07499999999999,-0.375895498285885,0.395446420398773
3.08749999999999,-0.568242938230863,0.586325632376968
3.09999999999999,-0.674996767376799,0.687002957369598
3.11249999999999,-0.679302013268026,0.682751678355714
3.12499999999999,-0.579841308200141,0.574861825348171
3.13749999999999,-0.391161492948057,0.380365733223461
3.14999999999999,-0.141536943632758,0.129341719491204
3.16249999999999,0.131275095905752,-0.139736034468933
3.17499999999999,0.385715425047197,-0.385879593983559
3.18749999999999,0.582798601911288,-0.571868362848633
3.19999999999999,0.69205263598235,-0.669836965925275
3.21249999999999,0.696246503608248,-0.665478444769917
3.22499999999999,0.594108748811912,-0.56012157320868
3.23749999999999,0.400596618993952,-0.370422058831883
3.24999999999999,0.144741682986836,-0.125749085660576
3.26249999999999,-0.134744378984034,0.136392497702448
3.27499999999999,-0.39529300241339,0.376073841368569
3.28749999999999,-0.596985920231193,0.557053864328203
3.29999999999999,-0.70867025360689,0.6522509598386
3.31249999999999,-0.712754275151579,0.647788484534269
3.32499999999999,-0.608000213107081,0.54503152230992
3.33749999999999,-0.40978463039035,0.360251976404754
3.34999999999999,-0.147855374267055,0.122073872708328
3.36249999999999,0.138126863589567,-0.132965572241383
3.37499999999999,0.40462278491333,-0.366034169830821
3.38749999999999,0.610800851746199,-0.541890939548467
3.39999999999999,0.724843993501794,-0.634255175103412
3.41249999999999,0.728815514019546,-0.629692100952506
3.42499999999999,0.621510476080889,-0.529595351129114
3.43749999999999,0.418713305646579,-0.349851717270192
3.44999999999999,0.150879337313201,-0.118324985252118
3.46249999999999,-0.14142870955735,0.129457666630125
3.47499999999999,-0.413692645023022,0.355758909637081
3.48749999999999,-0.624235253181032,0.526389322696676
3.49999999999999,-0.740562026171009,0.61585825636346
3.51249999999999,-0.74441930406916,0.611197889832313
3.52499999999999,-0.634627803616583,0.513824055266203
3.53749999999999,-0.427375220531623,0.339229403237648
3.54999999999999,-0.153810850938531,0.114498940692625
3.56249999999999,0.144639857210528,-0.125868833746912
3.57499999999999,0.422509860352236,-0.345260587780595
3.58749999999999,0.637272136998327,-0.510550275435568
3.59999999999999,0.755811325467787,-0.597070592787911
3.61249999999999,0.759549654795456,-0.592314218059163
3.62499999999999,0.647346053452699,-0.497726293922444
3.63749999999998,0.435767640868562,-0.328388486684448
3.64999999999998,0.156634936585711,-0.110600107417785
3.66249999999998,-0.147757229546403,0.122195322158229
3.67499999999998,-0.431058212628126,0.334544361130747
3.68749999999998,-0.649902979301477,0.494386627905222
3.69999999999998,-0.770579865135518,0.577902795567397
3.71249999999998,-0.774196037629243,0.573053113673176
3.72499999999998,-0.659650775814201,0.481314510990132
3.73749999999998,-0.443881480933423,0.317340735309625
3.74999999999998,-0.159363690531875,0.106630113989011
3.76249999999998,0.150783103407826,-0.118445996264679
3.77499999999998,0.439328194945296,-0.323612246260415
3.78749999999998,0.662123289368811,-0.477910683209658
3.79999999999998,0.784857398094735,-0.558369548905457
3.81249999999998,0.788351425455332,-0.553431085014314
3.82499999999998,0.671538228201656,-0.464600219973685
3.83749999999998,0.451716661561988,-0.306095678551886
3.84999999999998,0.161991753590892,-0.102595833832984
3.86249999999998,-0.153714280348423,0.114621370624745
3.87499999999998,-0.447318016250368,0.312478867229033
3.88749999999998,-0.673923764118748,0.4611353528508
3.89999999999998,-0.798642009032467,0.538487227300205
3.91249999999998,-0.802010096600517,0.533464278677135
3.92499999999998,-0.683000790943814,0.447593856521617
3.93749999999998,-0.459269673138094,0.294661841560094
3.94999999999998,-0.16451995841398,0.0984953547529804
3.96249999999999,0.156541044573549,-0.110724598980367
3.97499999999999,0.455033906710933,-0.301150032889403
3.98749999999999,0.685299417414943,-0.444070735822338
3.99999999999999,0.811926151337656,-0.518269964452321
4.01249999999999,0.815167663512786,-0.513163936079249
4.02499999999999,0.694036396934296,-0.430305968290477
4.03749999999999,0.466533808808494,-0.283040687624281
4.04999999999999,0.166947152946438,-0.0943372921714635
4.06249999999999,-0.159276315045918,0.106762047729855
4.07499999999999,-0.46246001029051,0.289633154117968
4.08749999999999,-0.69624859684399,0.426728015492664
4.09999999999999,-0.824700100993247,0.497724667409201
4.11249999999999,-0.827811289009013,0.492538333227158
4.12499999999999,-0.704641954772124,0.412749997870369
4.13749999999999,-0.473500882368625,0.271237168386012
4.14999999999999,-0.169268421986059,0.0901176779125564
4.16249999999999,0.161911171233644,-0.102731419092229
4.17499999999999,0.469596902018698,-0.277932175074267
4.18749999999999,0.70676062052485,-0.409115352499749
4.19999999999999,0.836953855331143,-0.476864231313367
4.21249999999999,0.839935949544237,-0.471600471640128
4.22499999999999,0.714794292903022,-0.3949283470319
4.23749999999999,0.480170788443049,-0.25926443489999
4.24999999999999,0.17147766540749,-0.0858372254244968
4.26249999999999,-0.164441165904513,0.0986331560911782
4.27499999999999,-0.47643952066034,0.266058212396141
4.28749999999999,-0.716819150697028,0.391239730673094
4.29999999999999,-0.848678860038765,0.455699380371175
4.3125,-0.851525403102006,0.450362875720581
4.325,-0.724493561665533,0.376856042677673
4.3375,-0.486535463713507,0.247125951988512
4.35,-0.173577171432792,0.0815016748909656
4.3625,0.166868474741202,-0.094472175412932
4.375,0.482974006079781,-0.254008644454297
4.3875,0.726427316218042,-0.373119366899805
4.4,0.859861803877999,-0.434246359046731
4.4125,0.862572749239177,-0.428840062069396
4.425,0.733735387481712,-0.358547202769039
4.4375,0.492584993654236,-0.234831023865776
4.45,0.175579257796507,-0.0771223720976466
4.4625,-0.169193798532711,0.0902545717037128
4.475,-0.489202770858686,0.241800788853663
4.4875,-0.735574212077608,0.35476377908171
4.5,-0.870501607730838,0.41252152164718
4.5125,-0.873075307379225,0.407050295720837
4.525,-0.74251416813596,0.340013980042401
4.5375,-0.498334770370624,0.22239183027688
4.55,-0.177455936470472,0.0726907723751463
4.5625,0.171405997207273,-0.0859759158694486
4.575,0.495125368142914,-0.229444362943949
4.5875,0.744254469713623,-0.336185983876741
4.6,0.880594348320427,-0.390540616209804
4.6125,0.883031780916357,-0.38500610848202
4.625,0.750824463426542,-0.32126947023723
4.6375,0.503771370556838,-0.209815342363471
4.65,0.179227282657947,-0.0682133669211438
4.66250000000001,-0.173511107052476,0.0816467603786783
4.67500000000001,-0.500737953656498,0.216945767794867
4.68750000000001,-0.752470832583047,0.317398287542293
4.70000000000001,-0.890135005315996,0.368313472719669
4.71250000000001,-0.892433125474957,0.362719808885871
4.72500000000001,-0.758667360623019,0.302321235357389
4.73750000000001,-0.508886748008784,0.197103093837241
4.75000000000001,-0.180889063810171,0.0636935215370455
4.76250000000001,0.175516595280731,-0.0772675448361887
4.77500000000001,0.506025862900574,-0.204305956607622
4.78750000000001,0.760217452533642,-0.298411221391223
4.80000000000001,0.899116388253694,-0.345852937214013
4.81250000000001,0.901273258147035,-0.34020304300055
4.82500000000001,0.766031014022606,-0.283181591268785
4.83750000000001,0.513680404435573,-0.184266532129912
4.85000000000001,0.182434481604476,-0.0591305820845208
4.86250000000001,-0.177398927208697,0.0728377934658556
4.87500000000001,-0.511011709676886,0.191539299746626
4.88750000000001,-0.767480224344126,0.279232072587729
4.90000000000001,-0.907528298053816,0.32317258306343
4.91250000000001,-0.909541737163774,0.317469855761791
4.92500000000001,-0.77290311835458,0.263857974031314
4.93750000000001,-0.518155631035306,0.171312514199402
4.95000000000001,-0.183857095845732,0.0545327691392083
4.96250000000001,0.179173009390597,-0.0683598625120497
4.97500000000001,0.515666536267955,-0.178650342080736
4.98750000000001,0.774255464073956,-0.259876379471937
5.00000000000001,0.915362573741219,-0.300286529446004
5.01250000000002,0.917230152601851,-0.294534335037486
