"Time [ms]","InducedVoltage(Cos_Winding) [mV]","InducedVoltage(Sin_Winding) [mV]"
0,-960.429146190164,556.573039054846
0.0125,-835.940040173037,478.819916112508
0.025,-711.450934155909,401.066793170169
0.0375,-477.975530300885,263.380403370872
0.05,-170.75843862352,87.302290702059
0.0625,163.605554407375,-100.050645053723
0.075,474.182710058385,-270.148618588281
0.0875,713.510682604529,-397.393484093329
0.1,844.825997177121,-462.976656161714
0.1125,847.721537146459,-457.658187704692
0.125,721.312722491883,-383.055845996449
0.1375,484.456881506749,-251.287119608063
0.15,172.898005919824,-82.9826734563988
0.1625,-166.068065252503,95.9100126402823
0.175,-480.829745392658,258.144347124933
0.1875,-723.283091982261,379.333918745611
0.2,-856.208245432859,441.595548794929
0.2125,-858.96921579513,436.205624913363
0.225,-730.727354487804,364.805421259275
0.2375,-490.62438944513,239.027865075594
0.25,-174.932244094789,78.610224707158
0.2625,168.430484319546,-91.7041041134275
0.275,487.173171111317,-245.978231219375
0.2875,732.60199793759,-361.034109655878
0.3,867.047551478524,-419.932691456017
0.3125,869.673382359716,-414.474416065785
0.325,739.674601124575,-346.320994298033
0.3375,496.480957170264,-226.617954628821
0.35,176.854349061986,-74.1865169064447
0.3625,-170.687847274532,87.4447812650514
0.375,-493.205604126346,233.653539927745
0.3875,-741.451401827044,342.499753887473
0.4,-877.338437512861,398.001807309879
0.4125,-879.823391984202,392.479234983996
0.425,-748.149583754789,327.614710896169
0.4375,-502.023251158463,214.063101385488
0.45,-178.656493437358,69.7131312017356
0.4625,172.826233434341,-83.1208248812028
0.475,498.929147601873,-221.179335634513
0.4875,749.829052287459,-323.752322308211
0.5,887.068288057981,-375.817696083607
0.5125,889.413414186743,-370.23507060606
0.525,756.147330100183,-308.70081248793
0.5375,507.248302328188,-201.376123552565
0.55,180.358899437775,-65.2027341661965
0.5625,-174.866690238333,78.7519007392423
0.575,-504.331850408134,208.565212785188
0.5875,-757.73252755138,304.798065574367
0.6,-896.236878901273,353.399562153216
0.6125,-898.439423041966,347.759476925484
0.625,-763.675260262702,289.595947184996
0.6375,-512.148520632864,188.561185146791
0.65,-181.942685398187,60.6507724591888
0.6625,176.792226227055,-74.3303727827269
0.675,509.41519324169,-195.821803066528
0.6875,765.1576417895,-285.655818122216
0.7,904.84082914387,-330.759388129586
0.7125,906.90448915462,-325.066704134105
0.725,770.717410326678,-270.310114757776
0.7375,516.732880291635,-175.628775220492
0.75,183.411051874872,-56.0576153737274
0.7625,-178.60301708203,69.8638333817703
0.775,-514.185754965933,182.957666905821
0.7875,-772.098283731828,266.330428042825
0.8,-912.878776934926,307.911281539419
0.812500000000001,-914.798360252419,302.167477041062
0.825000000000001,-777.27729295355,250.851458753952
0.837500000000001,-520.990883407119,162.583790448956
0.850000000000001,-184.761028151946,51.4279948350048
0.862500000000001,180.301929516484,-65.3510914788166
0.875000000000001,518.622257737743,-169.973777696537
0.887500000000001,778.562484880544,-246.839733884444
0.900000000000001,920.340893716674,-284.866118350254
0.912500000000001,922.115574231138,-279.076428317889
0.925000000000001,783.345675177894,-231.232144179387
0.937500000000001,524.912940255701,-149.434534749029
0.950000000000001,186.006348577057,-46.7663724144475
0.962500000000001,-181.894790247478,60.7992172852598
0.975000000000001,-522.737444554335,156.881755935743
0.987500000000001,-784.529728506082,227.189215870496
1,-927.218576019185,261.639290901074
1.0125,-928.845642453335,255.805260513206
1.025,-788.916061205444,211.464236648584
1.0375,-528.511254620104,136.191875400412
1.05,-187.11688014312,42.0762046394287
1.0625,183.367122592626,-56.2075228373181
1.075,526.520901588169,-143.690689015555
1.0875,789.995659690316,-207.394222319438
1.1,933.506155651059,-238.245143305729
1.1125,934.9852728276,-232.372881665795
1.125,793.982731392865,-191.564827393145
1.1375,531.766483314686,-122.860147518279
1.15,188.115499804265,-37.3590523208663
1.1625,-184.721943755569,51.5794671089744
1.175,-529.968814597507,130.408347885966
1.1875,-794.95884660098,187.466931118785
1.2,-939.200383486601,214.702163061825
1.2125,-940.53185603574,208.794904846533
1.225,-798.549035977482,171.545216768406
1.2375,-534.687879539078,109.455969832265
1.25,-188.994769177501,32.6192330110181
1.2625,185.964195550157,-46.9189258241979
1.275,533.072910390362,-117.045208574335
1.2875,799.42378214471,-167.424982495754
1.3,944.302653758063,-191.026207785656
1.3125,945.485749724103,-185.08865325394
1.325,802.611992220337,-151.419794307691
1.3375,537.27412617156,-95.9810399957354
1.35,189.757415245682,-27.8583142604258
1.3625,-187.079226968818,42.2276168838492
1.375,-535.852093290658,103.608342147166
1.3875,-803.384036277652,147.279858361341
1.4,-948.813927937616,167.23198464796
1.4125,-949.848687469517,161.265845530718
1.425,-806.167698871149,131.196742072844
1.4375,-539.527086495616,82.448542964752
1.45,-190.400888644085,23.0810540556887
1.4625,188.085792403978,-37.5142886516364
1.475,538.290472078275,-90.107461916929
1.4875,806.839487713244,-127.040185908656
1.5,952.728610407604,-143.330248313267
1.5125,953.612495807475,-137.339729515228
1.525,809.225700061251,-110.892487396392
1.5375,541.431515962821,-68.8591331401154
1.55,190.92411619195,-18.2871271847484
1.5625,-188.970718649286,32.7740858475393
1.575,-540.39659734745,76.5484035097258
1.5875,-809.787759386738,106.719297416893
1.6,-956.038753763602,119.336690627695
1.6125,-956.773495443346,113.325207840747
1.625,-811.765243760274,90.516268950795
1.6375,-542.994818761719,55.2279566950104
1.65,-191.323284570911,13.4816009721376
1.6625,189.737291731438,-28.0159749566117
1.675,542.155564528283,-62.9408338447495
1.6875,812.220171130772,-86.3277045945098
1.7,958.743816276791,-95.2665211724134
1.7125,959.325788550504,-89.2394507595669
1.725,813.786546771313,-70.0830493189715
1.7375,544.214935469497,-41.5605784690112
1.75,191.59455872149,-8.6667710923733
1.7625,-190.378733200978,23.2341346675628
1.775,-543.56781603393,49.2918447817661
1.7875,-814.138751103326,65.8859373582013
1.8,-960.836530305155,71.1379329411812
1.8125,-961.268180542445,65.0989139632918
1.825,-815.292608623644,49.6069629149038
1.8375,-545.087646445124,27.8708668194754
1.85,-191.759377510982,3.85085504638054
1.8625,190.908095052073,-18.4423214561118
1.875,544.634927417948,-35.6143395682975
1.8875,815.5390260166,-45.4029919314504
1.9,962.325765770318,-46.9679458394707
1.9125,962.602438575198,-40.9213260745905
1.925,816.28811033987,-29.1020203023192
1.9375,545.617281332988,-14.164956550435
1.95,191.798999293545,0.967330383817942
1.9625,-191.311593896906,13.6375175976571
1.97499999999999,-545.360691400427,21.9164997761925
1.98749999999999,-816.425273701361,24.8958924690689
1.99999999999999,-963.209271677137,22.771062752617
2.01249999999999,-963.334428224767,16.7189478328035
2.02499999999999,-816.770571383035,8.58278968245065
2.03749999999999,-545.809373216272,0.450026446527099
2.04999999999999,-191.715274179317,-5.78631971354344
2.06249999999999,191.59163663877,-8.82773301450252
2.07499999999999,545.748594739256,-8.20636938293259
2.08749999999999,816.800939932278,-4.37147304159032
2.09999999999999,963.488476827893,1.44013119643239
2.11249999999999,963.460679184184,7.49354549961237
2.12499999999999,816.738142336054,11.9450773832463
2.13749999999999,545.659935247031,13.2657706990042
2.14999999999999,191.512220115646,10.6026630527868
2.16249999999999,-191.757396158965,4.00955076656964
2.17499999999999,-545.785469987574,-5.50991657620751
2.18749999999999,-816.666826913442,-16.1551659909746
2.19999999999999,-963.161284958201,-25.6515248397305
2.21249999999999,-962.983883225818,-31.7023856998975
2.22499999999999,-816.180834488725,-32.4649574216481
2.23749999999999,-545.164281840207,-26.972310655509
2.24999999999999,-191.19094327246,-15.4143925516619
2.26249999999999,191.802923036424,0.811008228221621
2.27499999999999,545.480886236733,19.2242992616345
2.28749999999999,816.01297146058,36.6724595198988
2.29999999999999,962.223163225734,49.8462793802233
2.31249999999999,961.893360651821,55.8910511060595
2.32499999999999,815.118318209161,52.9655237895927
2.33749999999999,544.306809701068,40.6627275805446
2.34999999999999,190.748490921901,20.2101011685951
2.36249999999999,-191.723037496,-5.63080204174317
2.37499999999999,-544.832589549565,-32.9259710825556
2.38749999999999,-814.838134514438,-57.1640716078136
2.39999999999999,-960.673219057099,-74.0085589735651
2.41249999999999,-960.189197403845,-80.0416892642603
2.42499999999999,-813.536463788003,-73.4276447726743
2.43749999999999,-543.109511852544,-54.3253952557265
2.44999999999999,-190.178338025989,-24.9961322933459
2.46249999999999,191.516249555196,10.4469290009346
2.47499999999999,543.835628847156,46.6048903887021
2.48749999999999,813.148371854252,77.6190834368219
2.49999999999999,958.513261943969,98.1199588791342
2.51249999999999,957.878283438368,104.138498927107
2.52499999999999,811.439057123509,93.8415322304833
2.53749999999999,541.584294729006,67.9515308069619
2.54999999999999,189.471545715525,29.761228465465
2.56249999999999,-191.184194283448,-15.2547434256074
2.57499999999999,-542.492937000781,-60.2499247572184
2.58749999999999,-810.94636396076,-98.0217259338829
2.59999999999999,-955.749686891198,-122.166396433771
2.61249999999999,-954.965857702426,-128.165859608964
2.62499999999999,-808.830023358039,-114.192748812138
2.63749999999999,-539.714445272015,-81.5344754757172
2.64999999999999,-188.678138883901,-34.5145700499096
2.66249999999999,190.758953454631,20.054899774734
2.67499999999999,540.806144491441,73.8588057131551
2.68749999999999,808.234355823907,118.359702313216
2.69999999999999,952.389012568284,146.134246322711
2.71249999999999,951.455990325863,152.112905352285
2.72499999999999,805.714773614692,134.473660738162
2.73749999999999,537.502308121452,95.0645102156722
2.74999999999999,187.758876068922,39.2428622104322
2.76249999999999,-190.201922245427,-24.8393950023504
2.77499999999999,-538.788594410295,-87.418915676531
2.78749999999999,-805.012017962118,-138.623968257068
2.79999999999999,-948.429414634407,-170.011659758374
2.81249999999999,-947.345833105347,-175.96417816391
2.82499999999999,-802.095539978181,-154.671944057364
2.83749999999999,-534.947499662712,-108.536122857152
2.84999999999999,-186.716344835579,-43.9467932997361
2.86249999999999,189.511102990983,29.6074701368266
2.87499999999999,536.444730389088,100.929181363327
2.88749999999999,801.279817052095,158.801009246471
2.89999999999999,943.869568259227,193.78137786458
2.91249999999999,942.635742122872,199.705925661564
2.92499999999999,797.964409008386,174.770420923964
2.93749999999999,532.057361387083,121.938721814954
2.94999999999999,185.550947419924,48.6213994888489
2.96249999999999,-188.708193857959,-34.3579761697965
2.97499999999999,-533.737574525625,-114.369096366835
2.98749999999999,-797.054534827594,-178.880153944124
2.99999999999999,-938.708157836073,-217.429241640887
3.01249999999999,-937.327178083581,-223.319505841796
3.02499999999999,-793.323548897268,-194.756116477494
3.03749999999999,-528.829625159883,-135.265008048148
3.04999999999999,-184.267378834982,-53.2650875435566
3.06249999999999,187.787290978447,39.0893574876629
3.07499999999999,530.694345353921,127.739127051813
3.08749999999999,792.313476557372,198.841639246684
3.09999999999999,932.952619183859,240.935594412682
3.11249999999999,931.423046685024,246.789095429028
3.12499999999999,788.180522880683,214.617125041949
3.13749999999999,525.264130615491,148.499584081621
3.14999999999999,182.878115928108,57.8781886392842
3.16249999999999,-186.75109861362,-43.794881652325
3.17499999999999,-527.31767725951,-141.026604156557
3.18749999999999,-787.066422184937,-218.674723257049
3.19999999999999,-926.61061914891,-264.287784413447
3.21249999999999,-924.931500865968,-270.098916219796
3.22499999999999,-782.545106141804,-234.342344649455
3.23749999999999,-521.3680292575,-161.641690167813
3.24999999999999,-181.367986078721,-62.4497340760923
3.26249999999999,185.58952803166,48.4702811580973
3.27499999999999,523.611914425441,154.22356098617
3.28749999999999,781.326955022506,238.36769165959
3.29999999999999,919.684225945604,287.471151649782
3.31249999999999,917.860201733147,293.238761029428
3.32499999999999,776.419661277847,253.917495665029
3.33749999999999,517.149651574048,174.683921045384
3.34999999999999,179.741680549028,66.9832045223788
3.36249999999999,-184.312345962229,-53.1123101810886
3.37499999999999,-519.579320951448,-167.322816360715
3.38749999999999,-775.09824415115,-257.913209554937
3.39999999999999,-912.181285149818,-310.475046505082
3.41249999999999,-910.214274101304,-316.195812549417
3.42499999999999,-769.801637003127,-273.335351045637
3.43749999999999,-512.605490543416,-187.616570824974
3.44999999999999,-178.003059731022,-71.4769249594849
3.46249999999999,182.923307130918,57.7260260817573
3.47499999999999,515.211186301923,180.315280875722
3.48749999999999,768.386566278509,277.298049223766
3.49999999999999,904.103402729673,333.285303593039
3.51249999999999,901.995219996372,338.956038664309
3.52499999999999,762.696287030021,292.580341946969
3.53749999999999,507.733923727034,200.429974017075
3.54999999999999,176.156379521984,75.9279863661455
3.56249999999999,-181.419043893488,-62.3021379194293
3.57499999999999,-510.526383834747,-193.199444359349
3.58749999999999,-761.183892343501,-296.507537507315
3.59999999999999,-895.452491266162,-355.885221603653
3.61249999999999,-893.200857199477,-361.500999207644
3.62499999999999,-755.111605254607,-311.643789463627
3.63749999999998,-502.540271751228,-213.116754677685
3.64999999999998,-174.191322228946,-80.323177003622
3.66249999999998,179.79855468871,66.837744764722
3.67499999999998,505.516550763693,205.961073671546
3.68749999999998,753.497141588252,315.527309475158
3.69999999999998,886.231810434925,378.258592888728
3.71249999999998,883.838639154544,383.814851716296
3.72499999999998,747.047779521528,330.504753573507
3.73749999999998,497.025608525694,225.667358276773
3.74999999999998,172.115714193577,84.6714567412004
3.76249999999998,-178.062410174855,-71.3329685347718
3.77499999999998,-500.183197797004,-218.588159263763
3.78749999999998,-745.333514629688,-334.348052705105
3.79999999999998,-876.448619836053,-400.389240251448
3.81249999999998,-873.918083428817,-405.883824891798
3.82499999999998,-738.510136381254,-349.156499427971
3.83749999999998,-491.203320364826,-238.074477619376
3.84999999999998,-169.934345358528,-88.9645290241318
3.86249999999998,176.215598816111,75.7829017842021
3.87499999999998,494.53198145587,231.074341439698
3.88749999999998,736.701118143051,352.954858604208
3.89999999999998,866.117188135341,422.267229633829
3.91249999999998,863.449904144662,427.695519507575
3.92499999999998,729.509244402649,367.585773410014
3.93749999999998,485.07206213721,250.332992546411
3.94999999999998,167.646729325504,93.2043834071073
3.96249999999999,-174.251950248283,-80.1802164783418
3.97499999999999,-488.574596594305,-243.42016457667
3.98749999999999,-727.606790048028,-371.338125204822
3.99999999999999,-855.244604135674,-443.880163110831
4.01249999999999,-852.442042310095,-449.240411029407
4.02499999999999,-720.049791051998,-385.787110424802
4.03749999999999,-478.636881087153,-262.433791819043
4.04999999999999,-165.259228870878,-97.38498387314
4.06249999999999,172.186878297342,84.5296321457961
4.07499999999999,482.311498935356,255.609654212049
4.08749999999999,718.056369868842,389.491531517626
4.09999999999999,843.833197210485,465.215479820952
4.11249999999999,840.895255876489,470.503350007402
4.12499999999999,710.144034438146,403.749496033681
4.13749999999999,471.895723676328,274.369462914924
4.14999999999999,162.76266989656,101.505894150846
4.16249999999999,-170.011222127556,-88.8272148279854
4.17499999999999,-475.744031136355,-267.64125751814
4.18749999999999,-708.054565301724,-407.401359912789
4.19999999999999,-831.88786631363,-486.258371396627
4.21249999999999,-828.819368365616,-491.472452181284
4.22499999999999,-699.781264054498,-421.453043009472
4.23749999999999,-464.858273759417,-286.132518839492
4.24999999999999,-160.160133047768,-105.558608627648
4.26249999999999,167.727799340473,93.0665257756787
4.27499999999999,468.878012773901,279.503896452446
4.28749999999999,697.597989549435,425.051748900711
4.29999999999999,819.415238525752,506.994452126296
4.3125,816.215790618239,512.128143070278
4.325,688.975050067139,438.888644008414
4.3375,457.524881376275,297.714017190063
4.35,157.453329985053,109.545360720144
4.3625,-165.336300481556,-97.2505535805709
4.375,-461.705934286781,-291.188324413701
4.3875,-686.704593257904,-442.431808784739
4.4,-806.422224983632,-527.405478809755
4.4125,-803.09436431376,-532.456561487941
4.425,-677.733867542259,-456.047007652105
4.4375,-449.898417588373,-309.100684631171
4.45,-154.660970398384,-113.467305548584
4.4625,162.844391634071,101.372861132128
4.475,454.24589640216,302.685691974607
4.4875,675.375643069638,459.530877480814
4.5,792.92168966827,547.482129379924
4.5125,789.468219000462,552.446986748262
4.525,666.06790612566,472.916064017417
4.5375,441.997442490546,320.298328087663
4.55,151.760239368985,117.309603080574
4.5625,-160.244499049373,-105.427240693991
4.575,-446.501984516156,-313.993478312589
4.5875,-663.622333604848,-476.336743917723
4.6,-778.924990747275,-567.213519656506
4.6125,-775.348622731651,-572.090942688584
4.625,-653.985175684564,-489.485877926646
4.6375,-433.819187768355,-331.295967707632
4.65,-148.76739674976,-121.082006541255
4.66250000000001,157.546713532867,109.414591267248
4.67500000000001,438.480806350832,325.102717113612
4.68750000000001,651.453639862081,492.847389442198
4.70000000000001,764.439224087645,586.590097736188
4.71250000000001,760.742598742233,591.37674683553
4.72500000000001,641.489951934271,505.751584003921
4.73750000000001,425.365395763504,342.083280703185
4.75000000000001,145.680982234337,124.782404975716
4.76250000000001,-154.755322956876,-113.340184848027
4.77500000000001,-430.173838344026,-336.004731453965
4.78750000000001,-638.877641641606,-509.050057667618
4.80000000000001,-749.472126630888,-605.599043243723
4.81250000000001,-745.65600666672,-610.292164896934
4.82500000000001,-628.590304019759,-521.698933611788
4.83750000000001,-416.640187790879,-352.654279681199
4.85000000000001,-142.502104250373,-128.402166521766
4.86250000000001,151.857975589698,117.187770961355
4.87500000000001,421.606810782641,346.704743499684
4.88750000000001,625.894245091595,524.929869415006
4.90000000000001,734.029572126995,624.225161574065
4.91250000000001,730.095743842347,628.820622940405
4.92500000000001,615.286406351532,537.314769239108
4.93750000000001,407.655553197457,363.003095484687
4.95000000000001,139.231281428897,131.933961254136
4.96250000000001,-148.86706037339,-120.961912053876
4.97500000000001,-412.768057143044,-357.181336879527
4.98750000000001,-612.513750502043,-540.475700856322
5.00000000000001,-718.120117664632,-642.453499867586
5.01250000000002,-714.070456968429,-646.947364130345
5.02500000000002,-601.60000112164,-552.588496808428
5.03750000000002,-398.405432332098,-373.117770278257
5.05000000000002,-135.872049086193,-135.386446355299
5.06250000000002,145.782218516,124.66243511276
5.07500000000002,403.665077422896,367.42603165392
5.08750000000002,598.746306668123,555.680349058094
5.10000000000002,701.754337727513,660.271262529079
5.11250000000002,697.595312510223,664.662864361807
5.12500000000002,587.531022131707,567.512465934465
5.13750000000002,388.90836727626,382.997838146983
5.15000000000002,132.430021296843,138.752531994489
5.16250000000002,-142.605315107699,-128.282627144805
5.17500000000002,-394.30896543009,-377.439394570297
5.18750000000002,-584.599199902179,-570.528912989688
5.20000000000002,-684.951243600559,-677.674766514931
5.21250000000002,-680.683130766972,-681.959066545552
5.22500000000002,-573.093203524409,-582.075628749101
5.23750000000002,-379.169670376354,-392.640031976386
