"Time [ms]","InducedVoltage(Cos_Winding) [mV]","InducedVoltage(Sin_Winding) [mV]"
0,553.130065300257,-962.441656752835
0.0125,484.241539558858,-832.831584417809
0.025,415.353013817458,-703.221512082783
0.0375,282.084113043665,-467.1903584763
0.05,104.17286714802,-161.022715881422
0.0625,-91.6019797475017,168.487561308557
0.075,-275.413752926239,471.155276009612
0.0875,-418.974171788075,701.070070133237
0.1,-499.861629698414,823.553264374138
0.1125,-505.029498461967,820.39495170244
0.125,-432.902645726401,692.554084133609
0.1375,-293.745521618418,459.956794994888
0.15,-108.186581015829,158.351664691566
0.1625,95.8056251176899,-166.132601355594
0.175,287.174637653247,-464.082354985894
0.1875,436.470507525512,-690.315543042127
0.2,520.413477118778,-810.72699710741
0.2125,525.500523036698,-807.439525187628
0.225,450.184343460549,-681.455047137794
0.2375,305.218799561427,-452.423542610175
0.25,112.135282467578,-155.581999161274
0.2625,-99.955271245984,163.671263569338
0.275,-298.753548747314,456.717370399228
0.2875,-453.694083936111,679.126107577375
0.3,-540.636045237114,797.385373489096
0.3125,-545.640146484591,793.970966885166
0.325,-467.1784017915,669.920015537301
0.3375,-316.497933022854,444.604090782024
0.35,-116.012489059229,152.711825593372
0.3625,104.040352734407,-161.110803933716
0.375,310.14252225963,-449.059806021784
0.3875,470.628563360207,-667.499056870719
0.4,560.517532643421,-783.537232908428
0.4125,565.431845094607,-779.99685682114
0.425,483.874464406018,-657.956833401273
0.4375,327.577499865346,-436.502162057147
0.45,119.811095044381,-149.739189614698
0.4625,-108.055780682261,158.435785817643
0.475,-321.338461707181,441.118070554095
0.4875,-487.260809866573,655.451568889515
0.5,-580.039852839992,769.189617534626
0.5125,-584.863068003286,765.527366177347
0.525,-500.261241935008,645.575676579053
0.5375,-338.447968780441,428.127076298956
0.55,-123.540842468717,146.683755368292
0.5625,112.007691118894,-155.671915280217
0.575,332.326588946036,-432.894987766576
0.5875,503.585858557753,-642.98810684808
0.6,599.192983251779,-754.358865429932
0.6125,603.92156801322,-750.575784157547
0.625,516.335856708739,-632.793704253999
0.6375,349.10133340348,-419.479049056216
0.65,127.18920609098,-143.533631238724
0.6625,-115.886835601498,152.805457012044
0.675,-343.102755689303,424.400364510842
0.6875,-519.590320498203,630.122603136382
0.7,-617.968053157485,739.053744912733
0.7125,-622.602361052408,735.155394206696
0.725,-532.080583598889,619.612718795956
0.7375,-359.539703725254,410.571355826763
0.75,-130.758103366964,140.289971356935
0.7625,119.688934281528,-149.842510932998
0.775,353.667990119455,-415.644535320874
0.7875,535.267211185932,-616.856996994351
0.8,636.356616886829,-723.285397803445
0.812500000000001,640.891792648972,-719.270855746679
0.825000000000001,547.493932944193,-606.040808886807
0.837500000000001,369.751692199638,-401.402961971426
0.850000000000001,134.242920876759,-136.955910372323
0.862500000000001,-123.417485202041,146.784055731866
0.875000000000001,-364.004359567365,406.618777144952
0.887500000000001,-550.613420682436,603.209153137837
0.900000000000001,-654.345073992471,707.058551790469
0.912500000000001,-658.77770409108,702.931813293856
0.925000000000001,-562.56187735413,592.08404376188
0.937500000000001,-379.725157567836,391.976613975672
0.950000000000001,-137.652471785358,133.540786575567
0.962500000000001,127.073450462642,-143.638261841008
0.975000000000001,374.116198926942,-397.338109113065
0.987500000000001,565.609375793708,-589.174729863803
1,671.918186390314,-690.382157618276
1.0125,676.2452470053,-686.143298398734
1.025,577.272906884379,-577.749565120664
1.0375,389.464346445057,-382.306829566593
1.05,140.960226182523,-130.034569074894
1.0625,-130.645072323076,140.397822028051
1.075,-383.99023705952,387.80590282488
1.0875,-580.243420549257,574.764586071349
1.1,-689.063997400862,673.265952027792
1.1125,-693.281941243851,668.919998646284
1.125,-591.613405785353,563.04951593547
1.1375,-398.95141337195,372.388956329819
1.15,-144.184286111505,126.44876386245
1.1625,134.133133416793,-137.067176959987
1.175,393.619132325203,-378.026802939436
1.1875,594.508458615187,-559.988840343804
1.2,705.7703229701,-655.724415322075
1.2125,709.877808892815,-651.274296913414
1.225,605.580635990067,-547.995342804472
1.2375,408.185358669335,-362.241398845644
1.25,147.316353131162,-122.783751002808
1.2625,-137.539520073745,133.651727890733
1.275,-402.991526801804,368.006770012232
1.2875,-608.398893479857,544.864559464777
1.3,-722.030217181388,637.771732946842
1.3125,-726.024345044753,633.221262140805
1.325,-619.164593611329,532.597888985663
1.3375,-417.164548314645,351.865314667557
1.35,-150.357889072476,119.042038273073
1.3625,140.851997808028,-130.147052242633
1.375,412.118309053232,-357.759472701595
1.3875,621.903810306765,-529.398721734809
1.4,737.837259728596,-619.421258136422
1.4125,741.717244713451,-614.771921278305
1.425,632.358373737659,-516.862714371373
1.4375,425.883104416192,-341.271931649577
1.45,153.304423506215,-115.226599124524
1.4625,-144.080871770373,126.568333321989
1.475,-420.982099089943,347.286737087845
1.4875,-635.018789271373,513.598682590136
1.5,-753.181387130457,600.679414129007
1.5125,-756.942881321978,595.933559970581
1.525,-645.161076435024,500.80757259191
1.5375,-434.329063770576,330.455830198572
1.55,-156.154962748894,111.336592839987
1.5625,147.217864016041,-122.905761653588
1.575,429.58729135847,-336.597391850912
1.5875,647.734889415677,-497.474502729811
1.6,768.047940373675,-581.555900071392
1.6125,771.6906085511,-576.717071064345
1.625,657.550987790976,-484.431284915905
1.6375,442.500149936912,-319.432676678332
1.65,158.903856783684,-107.374440531766
1.6625,-150.261293886781,119.168336697348
1.675,-437.915760010348,325.692416103201
1.6875,-660.039834602469,481.031465061731
1.7,-782.428715484375,562.063255985951
1.7125,-785.946754568123,557.134620130812
1.725,-669.52065597065,467.746546782739
1.7375,-450.392363209782,308.206739144786
1.75,-161.547211517767,103.340776291181
1.7625,153.208955889966,-115.348315070296
1.775,445.964940112276,-314.578365584758
1.7875,671.924747400835,-464.287915540007
1.8,796.308342785957,-542.214086812054
1.8125,799.702239418012,-537.200003428803
1.825,681.065417327413,-450.767249114407
1.8375,457.99461799672,-296.787803738644
1.85,164.098229816855,-99.2522976835591
1.8625,-156.063634815805,111.462997871412
1.875,-453.729764532073,303.267216070194
1.8875,-683.381201572205,447.24972711277
1.9,-809.685904595152,522.02741352266
1.9125,-812.949586116154,516.929513631103
1.925,-692.182164734634,433.507501044946
1.9375,-465.307730191064,285.183243684562
1.95,-166.542183045771,95.0996816554144
1.9625,158.816030765399,-107.503800473555
1.97499999999999,461.20899035028,-291.767860973678
1.98749999999999,694.404627328536,-429.933670074219
1.99999999999999,822.552016599113,-501.514609106054
2.01249999999999,825.687258153367,-496.336422869344
2.02499999999999,702.86204936656,-415.979125177802
2.03749999999999,472.33270842833,-273.4019058305
2.04999999999999,168.879616986559,-90.8846379520949
2.06249999999999,-161.46384708973,103.478350241235
2.07499999999999,-468.401311607865,280.089030596103
2.08749999999999,-704.994598656343,412.347352289866
2.09999999999999,-834.901876564886,480.687359265526
2.11249999999999,-837.905322512232,475.431665228987
2.12499999999999,-713.100142980553,398.186070308123
2.13749999999999,-479.062681225129,261.449201736571
2.14999999999999,-171.112102292553,86.6116838640701
2.16249999999999,164.016978592756,-99.3886485096013
2.17499999999999,475.292741798525,-268.228730431876
2.18749999999999,715.143800133909,-394.504489299348
2.19999999999999,846.726729468923,-459.556753459912
2.21249999999999,849.599240454817,-454.228232656311
2.22499999999999,722.879400207863,-380.137677963507
2.23749999999999,485.488478202618,-249.331296911988
2.24999999999999,173.240061047165,-82.2841987347422
2.26249999999999,-166.467216172264,95.2368958085459
2.27499999999999,-481.887635678931,256.199948974301
2.28749999999999,-724.838202137528,376.40951669113
2.29999999999999,-858.014126935067,438.135045305352
2.31249999999999,-860.751457612603,432.735301920806
2.32499999999999,-732.212039293628,361.852774874047
2.33749999999999,-491.592760776937,237.04789156376
2.34999999999999,-175.254897710288,77.909493160384
2.36249999999999,168.808699892305,-91.0233559011352
2.37499999999999,488.178387308124,-244.010171313872
2.38749999999999,734.068615803213,-358.076338475862
2.39999999999999,868.755453401916,-416.435596341548
2.41249999999999,871.353379853558,-410.968851301747
2.42499999999999,741.075005712196,-343.341562871219
2.43749999999999,497.389071438419,-224.617747251034
2.44999999999999,177.1549206906,-73.4801365924153
2.46249999999999,-171.038601370785,86.7495036749185
2.47499999999999,-494.156110235686,231.666079742035
2.48749999999999,-742.834776442996,339.517484752289
2.49999999999999,-878.942890682498,394.475230308368
2.51249999999999,-881.402889081195,388.945807291371
2.52499999999999,-749.467283300729,324.614397124911
2.53749999999999,-502.881994294493,212.054614734495
2.54999999999999,-178.927635056673,69.0017056086242
2.56249999999999,173.156471553435,-82.420729196764
2.57499999999999,499.817170777137,-219.178193262643
2.58749999999999,751.131064947871,-320.748036219461
2.59999999999999,888.575095491194,-372.269566541857
2.61249999999999,890.896549190858,-366.682212762927
2.62499999999999,757.385262410472,-305.686011766704
2.63749999999999,508.054788596399,-199.356631524624
2.64999999999999,180.61659135326,-64.4879438123744
2.66249999999999,-175.186708019828,78.0495552596412
2.67499999999999,-505.162658708452,206.550108721054
2.68749999999999,-758.953175830856,301.779704894672
2.69999999999999,-897.650650049855,349.833431400075
2.71249999999999,-899.832401204231,344.189489733399
2.72499999999999,-764.829593359592,286.565417366344
2.73749999999999,-512.905084052844,186.533700530794
2.74999999999999,-182.184380523419,59.9333350024422
2.76249999999999,177.096569812034,-73.6273745527583
2.77499999999999,510.196195144746,-193.798236217406
2.78749999999999,766.296582022222,-282.620211390654
2.79999999999999,906.162113219869,-327.176120879813
2.81249999999999,908.200482275409,-321.479512235441
2.82499999999999,771.795771150671,-267.26431899907
2.83749999999999,517.429614149275,-173.590054408263
2.84999999999999,183.633848751713,-55.3384128302969
2.86249999999999,-178.883608067242,69.1534026735865
2.87499999999999,-514.92119666531,180.925599170437
2.88749999999999,-773.155018076344,263.281368614718
2.89999999999999,-914.099894595887,304.311928368174
2.91249999999999,-915.994131050317,298.56434896726
2.92499999999999,-778.26886346517,247.793633669333
2.93749999999999,-521.62895450836,160.538474453982
2.94999999999999,-184.96252373004,50.7075893908057
2.96249999999999,180.563882197498,-64.6382153118401
2.97499999999999,519.298458474998,-167.933668108644
2.98749999999999,779.53613082315,-243.779708168283
2.99999999999999,921.456002336019,-281.252455248052
3.01249999999999,923.205430946452,-275.460952890005
3.02499999999999,784.244257135807,-228.165828354591
3.03749999999999,525.497696629713,-147.384177235118
3.04999999999999,186.173515851426,-46.0445801285841
3.06249999999999,-182.132606112889,60.080487326504
3.07499999999999,-523.349500098422,154.833941993024
3.08749999999999,-785.41221858634,224.12261118253
3.09999999999999,-928.226576858721,258.018498407687
3.11249999999999,-929.82881390354,252.184548065958
3.12499999999999,-789.722641600353,208.395090795997
3.13749999999999,-529.0283230863,134.14056442552
3.14999999999999,-187.276317761175,41.35488204857
3.16249999999999,183.58797963027,-55.4873416295007
3.17499999999999,527.069699362173,-141.638801385875
3.18749999999999,790.786704002585,-204.324139338571
3.19999999999999,934.411714449198,-234.624803282117
3.21249999999999,935.863688680182,-228.753000547422
3.22499999999999,794.705941863399,-188.495621871427
3.23749999999999,532.226093639574,-120.811703690589
3.24999999999999,188.254678308655,-36.6410241504547
3.26249999999999,-184.920262428643,50.8577050288088
3.27499999999999,-530.459695580332,128.357559534165
3.28749999999999,-795.663908744498,184.400716439501
3.29999999999999,-940.006536845452,211.085369501542
3.31249999999999,-941.311219891488,205.178606649105
3.32499999999999,-799.189441005955,168.48127918957
3.33749999999999,-535.094985853357,107.408575614048
3.34999999999999,-189.113362922879,31.9019290971082
3.36249999999999,186.135690054423,-46.199299409997
3.37499999999999,533.517519374733,-114.997250181556
3.38749999999999,800.043689437424,-164.360749637774
3.39999999999999,945.012111912129,-187.413091564408
3.41249999999999,946.169316114669,-181.475338854612
3.42499999999999,803.168379390439,-148.356822272816
3.43749999999999,537.626165084092,-93.9369465175269
3.44999999999999,189.855300407264,-27.1417132565808
3.46249999999999,-187.23978343404,41.5093170174214
3.47499999999999,-536.232211645747,101.562916883772
3.48749999999999,-803.92438673933,144.217714469933
3.49999999999999,-949.422780292442,163.620872719157
3.51249999999999,-950.43253066191,157.655895640798
3.52499999999999,-806.639062294532,128.138362304995
3.53749999999999,-539.814393348394,80.4053098420586
3.54999999999999,-190.481376816621,22.3633254494119
3.56249999999999,188.225203096539,-36.7945842448961
3.57499999999999,538.617709057949,-88.0627012161638
3.58749999999999,807.292533029932,-123.98133778477
3.59999999999999,953.231919053266,-139.72427018054
3.61249999999999,954.090174896318,-133.735338942487
3.62499999999999,809.602861785003,-107.837483089101
3.63749999999998,541.660622967491,-66.8210065787693
3.64999999999998,190.977391513964,-17.5748826947495
3.66249999999998,-189.089659965298,32.056138794372
3.67499999999998,-540.660401555757,74.5063813993022
3.68749999999998,-810.146526694589,103.667192199547
3.69999999999998,-956.434464071776,115.738999044397
3.71249999999998,-957.140454276673,109.73091259589
3.72499999999998,-812.050542854523,87.4721830450403
3.73749999999998,-543.161007292894,53.1953841351727
3.74999999999998,-191.354175801209,12.7713963475389
3.76249999999998,189.834097288408,-27.2953120206199
3.77499999999998,542.355423181603,-60.9045737063292
3.78749999999998,812.487958265178,-83.2870078646531
3.79999999999998,959.028702614961,-91.6829826658738
3.81249999999998,959.584545550305,-85.6593854006461
3.82499999999998,813.983754665876,-67.0516617295354
3.83749999999998,544.322701571167,-39.5400267154805
3.84999999999998,191.611627413265,-7.96290779331776
3.86249999999998,-190.459369755343,22.5180456911555
3.87499999999998,-543.705541289838,47.2666168403759
3.88749999999998,-814.316509322277,62.8579362570867
3.89999999999998,-961.021209963187,67.571382927722
3.91249999999998,-961.425540472986,61.5369765169306
3.92499999999998,-815.40399954671,46.5919397982202
3.93749999999998,-545.142938843237,25.8592251874841
3.94999999999998,-191.750985106809,3.14787960735774
3.96249999999999,190.958849431355,-17.7290585718109
3.97499999999999,544.719513844622,-33.5967220121236
3.98749999999999,815.632716494844,-42.3912812798015
3.99999999999999,962.412385330183,-43.4189593232901
4.01249999999999,962.665554295791,-37.3758642688374
4.02499999999999,816.313382454185,-26.1006649201127
4.03749999999999,545.620418761794,-12.1625594682273
4.04999999999999,191.773309960972,1.66646835890008
4.06249999999999,-191.344925603695,12.9298291622878
4.07499999999999,-545.390628235906,19.9094401725848
4.08749999999999,-816.439053260195,21.8958358461297
4.09999999999999,-963.198059507157,19.2375151375461
4.11249999999999,-963.297921349295,13.1895417903741
4.12499999999999,-816.716037203878,5.59258554890531
4.13749999999999,-545.750751539587,-1.5439352564986
4.14999999999999,-191.671787927601,-6.4831781054835
4.16249999999999,191.609588762744,-8.12051227945267
4.17499999999999,545.719226969958,-6.20668528925871
4.18749999999999,816.732532333474,-1.38543510539427
4.19999999999999,963.375151087375,4.95761867706933
4.21249999999999,963.324893319365,11.0072156092413
4.22499999999999,816.593928731621,14.9195295881087
4.23749999999999,545.537906797851,15.2491429675953
4.24999999999999,191.444459912309,11.294083580803
4.26249999999999,-191.751833192346,3.30755868967859
4.27499999999999,-545.704350377601,-7.49915066851789
4.28749999999999,-816.502913724572,-19.1274388528721
4.29999999999999,-962.942092600701,-29.1509409522563
4.3125,-962.738285647484,-35.1963092654753
4.325,-815.953767071116,-35.4214190801781
4.3375,-544.978117141624,-28.9450962528064
4.35,-191.094282209135,-16.0997060192734
4.3625,191.773184117027,1.5113660857431
4.375,545.336153599992,21.2034453784921
4.3875,815.759209299593,39.6249034481655
4.4,961.895906186914,53.3228157442346
4.4125,961.539560442879,59.3608255279452
4.425,814.798361645475,55.9005522285166
4.4375,544.067449394464,42.618613463794
4.45,190.636145761636,20.8924591124353
4.4625,-191.676168201805,-6.32716935899109
4.475,-544.62441524661,-34.8899125041772
4.4875,-814.49802964919,-60.096589041006
4.5,-960.242905277446,-77.4587795230813
4.5125,-959.734739275733,-83.4848193801852
4.525,-813.130081047969,-76.3415561142572
4.5375,-542.823501018633,-56.2660825134179
4.55,-190.045604802565,-25.6699159425362
4.5625,191.451937640034,11.1381246255767
4.575,543.572131270777,48.5539725759392
4.5875,812.722522631403,80.5265559209762
4.6,957.987335733681,101.543720921664
4.6125,957.328853786055,107.555545281074
4.625,810.951138845678,96.7317175987856
4.6375,541.239802956015,69.8785904041888
4.65,189.339909369795,30.4331016520187
4.66250000000001,-191.109329097073,-15.939937613244
4.67500000000001,-542.180029617862,-62.1848637361344
4.68750000000001,-810.439678568701,-100.908286150185
4.70000000000001,-955.130668798945,-125.565867587186
4.71250000000001,-954.322587010551,-131.559264837393
4.72500000000001,-808.262831920283,-117.064710087712
4.73750000000001,-539.312255273454,-83.4469203994375
4.75000000000001,-188.517167211882,-35.1805696835458
4.76250000000001,190.654386735969,20.7352136075217
4.77500000000001,540.437514689589,75.7786119938651
4.78750000000001,807.649713800461,121.227180394671
4.80000000000001,951.673227316758,149.510459163016
4.81250000000001,950.714915484324,155.482588369207
4.82500000000001,805.065032119236,137.324333867131
4.83750000000001,537.041589911694,96.9634201585912
4.85000000000001,187.57402129891,39.9047724571129
4.86250000000001,-190.069285587232,-25.5153770000613
4.87500000000001,-538.367980196323,-89.3281880245232
4.88750000000001,-804.345692849094,-141.470267463533
4.90000000000001,-947.612601299104,-173.361282571245
4.91250000000001,-946.503550459508,-179.307705227041
4.92500000000001,-801.351836614612,-157.498964455933
4.93750000000001,-534.434708369665,-110.417701072918
4.95000000000001,-186.507369139034,-44.5985607410909
4.96250000000001,189.366140662229,30.2792383008504
4.97500000000001,535.951697531026,102.819933392773
4.98750000000001,800.530778351819,161.622660545491
5.00000000000001,942.948849154807,197.101099465119
5.01250000000002,941.688787754597,203.017408694547
5.02500000000002,797.135569056812,177.568746726768
5.03750000000002,531.481558990677,123.801569853587
5.05000000000002,185.32448058272,49.2678073787598
5.06250000000002,-188.544922647936,-35.0261844191053
5.07500000000002,-533.190604708615,-116.242977682788
5.08750000000002,-796.210021810072,-181.673036706271
5.10000000000002,-937.684848324059,-220.71333410996
5.11250000000002,-936.278589870147,-226.595842145206
5.12500000000002,-792.413530158928,-197.526673031778
5.13750000000002,-528.196864503919,-137.105782203447
5.15000000000002,-184.026562665289,-53.9036461207815
5.16250000000002,187.603538682256,39.7497339577575
5.17500000000002,530.09484832726,129.592068924996
5.18750000000002,791.382798073658,201.60461075147
5.20000000000002,931.834363222001,244.185530132924
5.21250000000002,930.280134151789,250.029566487795
5.22500000000002,787.191392483003,217.356593407446
5.23750000000002,524.583790281864,150.324732922587
