"Time [ms]","InducedVoltage(Cos_Winding) [mV]","InducedVoltage(Sin_Winding) [mV]"
0,-559.166332921962,-966.004011418696
0.0125,-481.059521078498,-840.78379054117
0.025,-402.952709235033,-715.563569663645
0.0375,-264.627924273678,-480.728610053277
0.05,-87.727218830104,-171.731650696172
0.0625,100.509560449278,164.564102479815
0.075,271.414659061427,476.927778283033
0.0875,399.26939311981,717.627308931717
0.1,465.173761331071,849.688432260605
0.1125,459.840974079647,852.589943719025
0.125,384.892394334095,725.444709274092
0.1375,252.502289536338,487.223177841782
0.15,83.39473190934,173.874046455241
0.1625,-96.3571007589533,-167.030973745365
0.175,-259.378296653719,-483.589137728235
0.1875,-381.160644620628,-727.418861020987
0.2,-443.734348370229,-861.092905797949
0.2125,-438.329522394146,-863.859014049979
0.225,-366.591982305177,-734.876862749
0.2375,-240.208624971931,-493.401387603863
0.25,-79.0099954453392,-175.911972096007
0.2625,92.1404678195426,169.399206784839
0.275,247.177910611261,489.943457072024
0.2875,362.810513875286,736.755328591827
0.3,422.011233302715,871.951245078425
0.3125,416.537515531021,874.581038805835
0.325,348.056148025715,743.839463262696
0.3375,227.763174874361,499.266175947435
0.35,74.5739166121037,177.836968708211
0.3625,-87.869149654747,-171.660498721479
0.375,-234.819129660577,-495.986804018357
0.3875,-344.224162574014,-745.618867932125
0.4,-400.018313646666,-882.257477080827
0.4125,-394.479980204528,-884.745971882198
0.425,-329.296092411843,-752.325542746832
0.4375,-215.173226828702,-504.817012169606
0.45,-70.0867937912502,-179.639638593452
0.4625,83.5334956923628,173.802292938204
0.475,222.309777151775,501.718911885211
0.4875,325.422369792084,754.006985042946
0.5,377.770451040464,891.999976576513
0.5125,372.171580782699,894.347831482524
0.525,310.327478723581,760.332697453616
0.5375,202.448596441678,510.047554523919
0.55,65.5626590813055,181.343573539561
0.5625,-79.1520770809441,-175.8461903751
0.575,-209.658806540382,-507.127521174182
0.5875,-306.413148461626,-761.919758315341
0.6,-355.28628338758,-901.178188185103
0.6125,-349.629623681684,-903.38275645712
0.625,-291.165968910945,-767.868180484838
0.6375,-189.595071908706,-514.950914803178
0.65,-60.9976988326507,-182.929267554436
0.6625,74.7180922018414,177.774662005367
0.675,196.877437177382,512.215509231042
0.6875,287.213939053159,769.351430044929
0.7,332.578895289877,909.78951909004
0.7125,326.869056688358,911.854396044583
0.725,271.822272613894,774.915077898339
0.7375,176.624251699994,519.538877900432
0.75,56.3901829304737,184.397120676879
0.7625,-70.2377269312988,-179.586096927292
0.775,-183.97556531349,-516.990844172731
0.7875,-267.830399854479,-776.296317266528
0.8,-309.662072220232,-917.832215225411
0.812500000000001,-303.900725192181,-919.752373603107
0.825000000000001,-252.304636848575,-781.477410297396
0.837500000000001,-163.539787215341,-523.798290862466
0.850000000000001,-51.7463403058529,-185.747157521201
0.862500000000001,65.7117972798731,181.286812159546
0.875000000000001,170.952243549969,521.429283638997
0.887500000000001,248.280748563365,782.763146161004
0.900000000000001,286.546700500122,925.295991415458
0.912500000000001,280.739124482557,927.070543385507
0.925000000000001,232.625376766661,787.546662812479
0.937500000000001,150.349948184234,527.71917791489
0.950000000000001,47.0704715745583,186.991797802266
0.962500000000001,-61.1466624538145,-182.881772475589
0.975000000000001,-157.819744102064,-525.543829052938
0.987500000000001,-228.570192026468,-788.730390775251
1,-263.248322756713,-932.172190701598
1.0125,-257.396455309553,-933.798795055352
1.025,-212.796549037126,-793.114261860901
1.0375,-137.065716137549,-531.314680966134
1.05,-42.3650614485441,-188.100271672943
1.0625,56.5405500056008,184.353251619926
1.075,144.588285879848,529.326721598817
1.0875,208.7133516007,794.192411078586
1.1,239.781594724898,938.455626362702
1.1125,233.890901216725,939.933247862382
1.125,192.834468611513,798.175487801684
1.1375,123.692594329833,534.566987087347
1.15,37.6326965097738,189.09659435045
1.1625,-51.8982202527862,-185.70758258317
1.175,-131.264280433152,-532.77134663778
1.1875,-188.723767089561,-799.150478227449
1.2,-216.164393171441,-944.142910757875
1.2125,-210.238217960097,-945.472092809327
1.225,-172.75147382662,-802.735303537028
1.2375,-110.245188620129,-537.482644834269
1.25,-32.8780382345364,-189.97451864109
1.2625,47.2234560396718,186.950096031937
1.275,117.858691525026,535.87020936304
1.2875,168.618122045373,803.608633202415
1.3,192.412649254299,949.235622339566
1.3125,186.456117597852,950.416002084791
1.325,152.561672811032,806.789202561529
1.3375,96.7275576979577,540.063019001656
1.35,28.1012660428446,190.734665919325
1.3625,-42.5175190943147,-188.06240626171
1.375,-104.378814879602,-538.645270413509
1.3875,-148.408080798181,-807.55960107724
1.4,-168.542199600158,-953.735612931655
1.4125,-162.556890964645,-954.767345530992
1.425,-132.273531253906,-810.333147383125
1.4375,-83.1512209503438,-542.309069852319
1.45,-23.3080606681839,-191.374252414449
1.4625,37.7891859182408,189.066829155663
1.475,90.8344901257479,541.076423622766
1.4875,128.102850751168,811.003973383202
1.5,144.563177208746,957.636590145784
1.5125,138.553422190334,958.516566864328
1.525,111.903066567069,813.379404997589
1.5375,69.5176341535255,544.202948300585
1.55,18.4991371269011,191.893751719431
1.5625,-33.0341284604606,-189.94984424274
1.575,-77.2318306512388,-543.173399153282
1.5875,-107.715673289656,-813.939351762739
1.6,-120.491627804681,-960.930077849506
1.6125,-114.460446523963,-961.660012840568
1.625,-91.4605914305815,-815.904084630406
1.6375,-55.8415542007303,-545.754922432055
1.65,-13.6780364312772,-192.287664923898
1.6625,28.2591512061194,190.712664595904
1.675,63.580541450079,544.923107157476
1.6875,87.258680640031,816.355235103335
1.7,96.3422554025814,963.61567910305
1.7125,90.2956577494101,964.192190918805
1.725,70.9599832319918,817.907047944714
1.7375,42.1296129852498,546.964337829352
1.75,8.8476251420068,192.552827724088
1.7625,-23.4626848342149,-191.351154223856
1.775,-49.886691981642,-546.322836190869
1.7875,-66.7494467560658,-818.256405396912
1.8,-72.134055647724,-965.686009738833
1.8125,-66.0752279296485,-966.112467204874
1.825,-50.4166883666793,-819.393490205306
1.8375,-28.3942216445633,-547.823109674297
1.85,-4.01421608222126,-192.713920651927
1.8625,18.6548002878896,191.877975997487
1.875,36.1631817361889,547.377175363302
1.8875,46.1986479376505,819.635953694224
1.9,47.8837241136098,967.151883817977
1.9125,41.8171915954316,967.422329409453
1.925,29.8428564961715,820.3681277322
1.9375,14.6419851914067,548.337087700413
1.95,-0.819473692676626,192.748890623302
1.9625,-13.834222186337,-192.276977991005
1.97499999999999,-22.4195464428309,-548.089757103668
1.98749999999999,-25.6224767954143,-820.500043542526
1.99999999999999,-23.6063142169566,-968.009657963384
2.01249999999999,-17.5339120234834,-968.127560547272
2.02499999999999,-9.25462151708364,-820.828628502682
2.03749999999999,-0.8814479445088,-548.513448869215
2.04999999999999,5.65483598761318,-192.658179936917
2.06249999999999,9.00810782357856,192.550489190883
2.07499999999999,8.66387864671578,548.463635046933
2.08749999999999,5.02913088349719,820.852946890458
2.09999999999999,-0.685971861335572,968.260747866305
2.11249999999999,-6.75986769516156,968.225032042624
2.12499999999999,-11.3421892815097,820.771457451164
2.13749999999999,-12.8807560717585,548.348150947505
2.14999999999999,-10.4872183397198,192.447830558211
2.16249999999999,-4.17386407645627,-192.711497505021
2.17499999999999,5.09860860413286,-548.483100997279
2.18749999999999,15.5662691589551,-820.694751322743
2.19999999999999,24.9790177044287,-967.903122312054
2.21249999999999,31.0503572492927,-967.718378474676
2.22499999999999,31.931021752185,-820.184657238521
2.23749999999999,26.6340090319085,-547.836337394497
2.24999999999999,15.3150415751442,-192.119420681633
2.26249999999999,-0.662647772649605,192.753073553951
2.27499999999999,-18.8593817714587,548.159857960724
2.28749999999999,-36.1527870460436,820.013577318212
2.29999999999999,-49.2556130794614,966.932286092737
2.31249999999999,-55.320718939308,966.594177893504
2.32499999999999,-52.5007460064152,819.095547207895
2.33749999999999,-40.3700342198364,546.955893774154
2.34999999999999,-20.1282516075632,191.671119247491
2.36249999999999,5.49890823057455,-192.667575346081
2.37499999999999,32.6071420034401,-547.493480182079
2.38749999999999,56.7139798582076,-818.808242434278
2.39999999999999,73.4997207425509,-965.347441297523
2.41249999999999,79.5533091421383,-964.853948790072
2.42499999999999,73.0327275377788,-817.483329944435
2.43749999999999,54.078809662903,-545.736301190183
2.44999999999999,24.9303139238295,-191.093439158694
2.46249999999999,-10.3308333750374,192.452353008208
2.47499999999999,-46.33283457171,546.476871153868
2.48749999999999,-77.2382641549734,817.087619054093
2.49999999999999,-97.6932282819325,963.150176997746
2.51249999999999,-103.732407505514,962.505369064968
2.52499999999999,-93.5162215506585,815.353370926717
2.53749999999999,-67.7526351058381,544.19131555875
2.54999999999999,-29.7107631274796,190.373014891485
2.56249999999999,15.1547003816044,-192.109251115538
2.57499999999999,60.0244968799195,-545.112573379959
2.58749999999999,97.710699849303,-814.853864505824
2.59999999999999,121.822130296012,-960.347382569736
2.61249999999999,127.842253974868,-959.553884992818
2.62499999999999,113.93746655309,-812.710259548661
2.63749999999999,81.3820132807874,-542.299433974404
2.64999999999999,34.4805930017295,-189.574382727172
2.66249999999999,-19.9730609091729,191.682060763018
2.67499999999999,-73.6786439394029,543.401615727606
2.68749999999999,-118.118322325799,812.107715192344
2.69999999999999,-145.872299809735,956.946570681975
2.71249999999999,-151.871448041626,956.003319714754
2.72499999999999,-134.28913728248,809.559640460915
2.73749999999999,-94.9579965188199,540.062494362392
2.74999999999999,-39.2252131144704,188.647150713816
2.76249999999999,24.7739320465112,-191.117755102747
2.77499999999999,87.2861148041221,-541.361099537764
2.78749999999999,138.451942741996,-808.849324217129
2.79999999999999,169.831805538107,-952.944427517297
2.81249999999999,175.805368885334,-951.849974890557
2.82499999999999,154.555732789929,-805.903553753582
2.83749999999999,108.47651358648,-537.481845580781
2.84999999999999,43.9461049308866,-187.596049127965
2.86249999999999,-29.5576754038225,190.418083674356
2.87499999999999,-100.844460929578,538.995727972069
2.88749999999999,-158.697703284892,805.077920660703
2.89999999999999,-193.683880803629,948.33969215957
2.91249999999999,-199.628675696281,947.094232975608
2.92499999999999,-174.723820149918,801.733521315914
2.93749999999999,-121.925517606356,534.56511393576
2.94999999999999,-48.63695344539,186.420160515972
2.96249999999999,34.3236950630853,-189.605765707186
2.97499999999999,114.330414374247,-536.260768394689
2.98749999999999,178.848476919614,-800.814868211353
2.99999999999999,217.412380769106,-943.131627544461
3.01249999999999,223.323962454405,-941.738057347127
3.02499999999999,194.778756736243,-797.0511947588
3.03749999999999,135.297676096388,-531.309989232215
3.04999999999999,53.2980962121628,-185.125854285189
3.06249999999999,-39.072285730692,188.674549648645
3.07499999999999,-127.74667907937,533.19083100893
3.08749999999999,-198.879001709865,796.033125357076
3.09999999999999,-241.00052526409,937.326590710486
3.11249999999999,-246.874904604829,935.784210944688
3.12499999999999,-214.709192205364,791.866814347584
3.13749999999999,-148.579269243354,527.715478371548
3.14999999999999,-57.9254271204816,183.726724170008
3.16249999999999,43.7933294832252,-187.630444543889
3.17499999999999,141.079523679087,-529.785530665702
3.18749999999999,218.781047371467,-790.743657301035
3.19999999999999,264.434892925931,-930.933596425625
3.21249999999999,270.266484493871,-929.241513415383
3.22499999999999,234.503291454364,-786.187930207876
3.23749999999999,161.766939310481,-523.789627100909
3.24999999999999,62.5136869070445,-182.20570471259
3.26249999999999,-48.4852850685192,186.45893469469
3.27499999999999,-154.322896657641,526.050759665347
3.28749999999999,-238.542665822764,784.959789653082
3.29999999999999,-287.699554955755,923.955292508143
3.31249999999999,-293.487656740692,922.11874001482
3.32499999999999,-254.147042264794,780.016307517829
3.33749999999999,-174.85459912356,519.541934472411
3.34999999999999,-67.0631241135101,180.567827485446
3.36249999999999,53.1433655400023,-185.171235401546
3.37499999999999,167.468059978312,-521.989558187662
3.38749999999999,258.156656408051,-778.685405183963
3.39999999999999,310.784340654984,-916.398611799799
3.41249999999999,316.52549499167,-914.418357598938
3.42499999999999,273.633355454059,-773.352797236613
3.43749999999999,187.832817328419,-514.965572960502
3.44999999999999,71.5722728677657,-178.818853413279
3.46249999999999,-57.7731185804447,183.773181688257
3.47499999999999,-180.505844381693,517.589295991431
3.48749999999999,-277.61007688442,771.927972989895
3.49999999999999,-333.674901188635,908.265131603886
3.51249999999999,-339.365883003399,906.142682369317
3.52499999999999,-292.946491468042,766.20082262609
3.53749999999999,-200.691323806287,510.060913732769
3.54999999999999,-76.0391482682549,176.960090279952
3.56249999999999,62.3655097892783,-182.258278290556
3.57499999999999,193.435529402002,-512.872900451342
3.58749999999999,296.887115749963,-764.67673073188
3.59999999999999,356.3546919978,-899.556600596574
3.61249999999999,361.990297037821,-897.290397138101
3.62499999999999,312.076915262088,-758.564779299127
3.63749999999998,213.423849663338,-504.835648222466
3.64999999999998,80.4502901594965,-174.981143705159
3.66249999999998,-66.9172165030361,180.625266560702
3.67499999999998,-206.242363961749,507.83061399966
3.68749999999998,-315.97438746789,756.939559745304
3.69999999999998,-378.807384635826,890.276529100565
3.71249999999998,-384.383395795423,887.867997848608
3.72499999999998,-331.005098051086,750.449441760137
3.73749999999998,-226.019089347775,499.286397062905
3.74999999999998,-84.8143794345921,172.894542732479
3.76249999999998,71.4284026359156,-178.878371213413
3.77499999999998,218.914629518211,-502.4625180109
3.78749999999998,334.86205080804,-748.725438940028
3.79999999999998,401.016880112008,-880.432052283277
3.81249999999998,406.531277729356,-877.88624512463
3.82499999999998,349.723526986231,-741.860215137071
3.83749999999998,238.470737906507,-493.427704664927
3.84999999999998,89.1233585569253,-170.701835499674
3.86249999999998,-75.8945105382284,177.020238234419
3.87499999999998,-231.445366655123,496.776391830214
3.88749999999998,-353.535490818014,740.040531325225
3.89999999999998,-422.973533664729,870.03884005462
3.91249999999998,-428.421343837602,867.355935759383
3.92499999999998,-368.219144406303,732.806135234943
3.93749999999998,-250.773101150255,487.261806883495
3.94999999999998,-93.3778903390287,168.399521066244
3.96249999999999,80.3067969218851,-175.042520046499
3.97499999999999,243.835791694844,-490.785061889541
3.98749999999999,371.984722167783,-730.892380354755
3.99999999999999,444.66416944676,-859.103437671744
4.01249999999999,450.043697219604,-856.2848249931
4.02499999999999,386.486027806309,-723.292409414167
4.03749999999999,262.917940004134,-480.790366304138
4.04999999999999,97.5736348802501,-165.998875884982
4.06249999999999,-84.6718918738626,172.965897687524
4.07499999999999,-256.068915730944,484.485124618512
4.08749999999999,-390.204026100632,721.288245128504
4.09999999999999,-466.076466753358,847.627210154373
4.11249999999999,-471.383614558784,844.672961813553
4.12499999999999,-404.513565693097,713.331757683513
4.13749999999999,-274.896589398389,474.01075467954
4.14999999999999,-101.709898166714,163.489824402207
4.16249999999999,88.9851627178101,-170.778688532109
4.17499999999999,268.143603466428,-477.880008645372
4.18749999999999,408.178981716289,-711.23072983315
4.19999999999999,487.195920464239,-835.615872560081
4.21249999999999,492.428956946058,-832.530411151692
4.22499999999999,422.281392567514,-702.911682250425
4.23749999999999,286.702563032948,-466.935209300569
4.24999999999999,105.777531356329,-160.872663166588
4.26249999999999,-93.2396699487432,168.480867100494
4.27499999999999,-280.049990031453,470.97727784018
4.28749999999999,-425.892932410092,700.716296758507
4.29999999999999,-508.007852109573,823.07552513375
4.3125,-513.16006314249,819.858680772155
4.325,-439.78080935167,692.047081040097
4.3375,-298.326206677004,459.562755284691
4.35,-109.778658431093,158.151836230099
4.3625,97.4383044446381,-166.075917142738
4.375,291.776978397217,-463.766458331981
4.3875,443.3369214092,-689.764832593742
4.4,528.493533949084,-810.013146222027
4.4125,533.562949859307,-806.667756922591
4.425,457.002251315655,-680.747784944511
4.4375,309.754708608286,-451.896110393945
4.45,113.715886856985,-155.34628696012
4.4625,-101.575945188446,163.571509203623
4.475,-303.316414873282,456.266193254218
4.4875,-460.499198584718,678.377477229071
4.5,-548.64423863988,796.442760466966
4.5125,-553.627466244321,792.97189410185
4.525,-473.933893244846,669.022224140704
4.5375,-320.99470358187,443.955624062018
4.55,-117.571907758896,152.430493642938
4.5625,105.645502573595,-160.957400718246
4.575,314.666062831403,-448.483179198908
4.5875,477.367412792468,-666.563824426406
4.6,568.448993279668,-782.375832538291
4.6125,573.345204219164,-778.781941759124
4.625,490.565210426806,-656.878743063625
4.6375,332.033396263965,-435.737686461472
4.65,121.358728667632,-149.422833874195
4.66250000000001,-109.647618007374,158.245686651452
4.67500000000001,-325.817038128455,440.422105729508
4.68750000000001,-493.93961181694,654.334970139846
4.70000000000001,-587.898272317864,767.818443538128
4.71250000000001,-592.703273969783,764.103670344125
4.72500000000001,-506.893260959838,644.322902181178
4.73750000000001,-342.860844829567,427.24197154754
4.75000000000001,-125.073356284761,146.322721913056
4.76250000000001,113.58837367266,-155.441415067592
4.77500000000001,336.759411205662,-432.073647224415
4.78750000000001,510.203712818382,-641.697846633771
4.80000000000001,606.979239038885,-752.778357959686
4.81250000000001,611.69016609592,-748.943758444421
4.82500000000001,522.901543724853,-631.361084858051
4.83750000000001,353.472346059523,-418.475396236409
4.85000000000001,128.706543910424,-143.128368846389
4.86250000000001,-117.449846604653,152.529582803381
4.87500000000001,-347.500622194318,423.46564182586
4.88750000000001,-526.143838872083,628.65155875653
4.90000000000001,-625.676292854762,737.261825863542
4.91250000000001,-630.289194027522,733.309326029116
4.92500000000001,-538.575764879304,617.993221583683
4.93750000000001,-363.862298203159,409.447527301174
4.95000000000001,-132.252129055977,139.842724780077
4.96250000000001,121.23847726224,-149.523144848625
4.97500000000001,358.017102817433,-414.584938879016
4.98750000000001,541.749203675901,-615.207444408512
5.00000000000001,643.974603146801,-721.277272422675
5.01250000000002,648.485528390533,-717.208665588647
5.02500000000002,553.908731115923,-604.242937905708
5.03750000000002,374.015403355213,-400.154860813792
5.05000000000002,135.718902441431,-136.467818200053
5.06250000000002,-124.952986770952,146.423257578732
5.07500000000002,-368.301400505279,405.438722267022
5.08750000000002,-557.012933469245,601.376592244243
5.10000000000002,-661.861245337717,704.835711244492
5.11250000000002,-666.270290865602,700.657661113966
5.12500000000002,-568.890966771067,590.109733357493
5.13750000000002,-383.934056797506,390.614532134546
5.15000000000002,-139.098752897797,133.010290026688
5.16250000000002,128.587008828529,-143.231186187092
5.17500000000002,378.35380761777,-396.039599821014
5.18750000000002,571.91954821787,-587.164997891657
5.20000000000002,679.333703447643,-687.956433559802
5.21250000000002,683.635003813056,-683.669235753562
5.22500000000002,583.512049671217,-575.606733906262
5.23750000000002,393.614774241648,-380.8330975111
