"Time [ms]","InducedVoltage(Cos_Winding) [mV]","InducedVoltage(Sin_Winding) [mV]"
0,-968.857343691999,-556.416564440747
0.0125,-838.392484473145,-487.106356256961
0.025,-707.927625254291,-417.796148073174
0.0375,-470.32655673264,-283.730379613674
0.05,-162.114214181965,-104.764690041387
0.0625,169.603557473735,92.1578629947441
0.075,474.303420734485,277.03964369919
0.0875,705.768930383867,421.427860106067
0.1,829.084973022117,502.772207779021
0.1125,825.916828601174,507.955356825125
0.125,697.225310104188,435.396849634306
0.1375,463.069034170792,295.424840638325
0.15,159.433306253367,108.79047152882
0.1625,-167.240682063651,-96.3757352947755
0.175,-467.208259531582,-288.833899408463
0.1875,-694.979030741485,-438.974671303698
0.2,-816.216507765333,-523.383213212508
0.2125,-812.91794608554,-528.484881717591
0.225,-686.0881511758,-452.72700953798
0.2375,-455.509489022266,-306.93003179948
0.25,-156.654115466666,-112.750473029697
0.2625,164.772265212693,100.536368734465
0.275,459.817625046284,300.447236721887
0.2875,683.751416352415,456.246427151616
0.3,802.828396079947,543.662364116954
0.3125,799.400968523696,548.679533535827
0.325,674.512585518718,469.768149687184
0.3375,447.660014516274,318.238882189314
0.35,153.773376109439,116.637404782533
0.3625,-162.201973282911,-104.632640780545
0.375,-452.134072247075,-311.867702830263
0.3875,-672.082656750838,-473.227194958477
0.4,-788.928243328969,-563.596432266527
0.4125,-785.374427821021,-568.523414081265
0.425,-662.5027146949,-486.506979139955
0.4375,-439.528780115719,-329.347847556487
0.45,-150.787632993321,-120.444542425654
0.4625,159.51904404176,108.659046208334
0.475,444.162366875136,323.09277901705
0.4875,659.987387792887,489.902329285149
0.5,774.524757825072,583.16862938096
0.5125,770.848026376024,588.003899130744
0.525,650.072958647233,502.934915160255
0.5375,431.118817321735,340.245736888545
0.55,147.718410233993,124.183300802665
0.5625,-156.744034237153,-112.621967350326
0.575,-435.905805319535,-334.108079103541
0.5875,-647.474526503811,-506.268069049669
0.6,-759.633847426719,-602.369737166723
0.6125,-755.835654863433,-607.109765341177
0.625,-637.238371302184,-519.049390443365
0.6375,-422.434300218126,-350.924091874783
0.65,-144.556990587884,-127.841381367755
0.6625,153.866868753449,116.511211575958
0.675,427.375996090551,344.910877263782
0.6875,634.556031061443,522.311752335757
0.7,744.266421937097,621.190788584389
0.7125,740.351488354812,625.835903933443
0.725,624.002895142586,534.832330042821
0.7375,413.490655487542,361.388136973946
0.75,141.298577996713,131.417547651759
0.7625,-150.890300637234,-120.321625628056
0.775,-418.585419420997,-355.502437575952
0.7875,-621.235623460903,-538.026609855473
0.8,-728.432274334647,-639.623246276279
0.812500000000001,-724.400482240261,-644.168815582398
0.825000000000001,-610.373437785667,-550.281515242306
0.837500000000001,-404.28352085999,-371.623868587471
0.850000000000001,-137.950428842497,-134.910841146485
0.862500000000001,147.820301201413,124.060077319242
0.875000000000001,409.521858126381,365.863784325873
0.887500000000001,607.529869291195,553.408396316122
0.900000000000001,712.135841944157,657.652783374085
0.912500000000001,707.991020747861,662.095177181971
0.925000000000001,596.356841751004,565.383818285048
0.937500000000001,394.815606326121,381.618970242314
0.950000000000001,134.519640950982,138.326485322202
0.962500000000001,-144.662474709145,-127.725743365238
0.975000000000001,-400.199720842325,-375.997115629341
0.987500000000001,-593.434819593371,-568.437727952801
1,-695.386095465219,-675.263864861536
1.0125,-691.128985237582,-679.60027758349
1.025,-581.958574086273,-580.125304848846
1.0375,-385.10105163079,-391.377090483629
1.05,-130.996863136913,-141.640588133422
1.0625,141.406853758621,131.304336662424
1.075,390.626296803933,385.892893684979
1.0875,578.959080451536,583.101289077665
1.1,678.193243870215,692.444742441351
1.1125,673.827406679319,696.671051398019
1.125,567.190684046209,594.493638469745
1.1375,375.13919909758,400.883599351079
1.15,127.393650457098,144.870069223621
1.1625,-138.061417325121,-134.799666370021
1.175,-380.802165814118,-395.540518936569
1.1875,-564.116379409935,-597.3945719696
1.2,-660.570978525015,-709.183601982314
1.2125,-656.099812006524,-713.298662303712
1.225,-552.067172805206,-608.487973362669
1.2375,-364.943314039261,-410.134236781626
1.25,-123.712784716933,-148.009073912594
1.2625,134.6316063952,138.213909143051
1.275,370.735577437702,404.930650291212
1.2875,548.921961865513,611.311786377285
1.3,642.5339386219,725.473601401915
1.3125,637.962154955048,729.474923341012
1.325,536.597507249409,622.096508931162
1.3375,354.519423639458,419.130022133598
1.35,119.953505643354,151.056590894001
1.3625,-131.109839497397,-141.531430146588
1.375,-360.441520429605,-414.076079575668
1.3875,-533.383450198942,-624.841338495628
1.4,-624.097782113197,-741.309197935791
1.4125,-619.426912259612,-745.196215081897
1.425,-520.78766315574,-635.312231983575
1.4375,-343.876702504233,-427.864410800298
1.45,-116.119222481283,-154.006980954545
1.4625,127.513698501736,144.765214458991
1.475,349.919523843368,422.95540280788
1.4875,517.509313602335,637.979503047683
1.5,605.267965161103,756.679719396996
1.5125,600.499642120265,760.447142250657
1.525,504.657421502208,648.137329778326
1.5375,333.008242412949,436.322209014293
1.55,112.210839740549,156.861183249737
1.5625,-123.834979022764,-147.90881021882
1.575,-339.178649179191,-431.572578489125
1.5875,-501.309072828023,-650.717000022376
1.6,-586.053445454087,-771.569476452685
1.6125,-581.191109174269,-775.217066072295
1.625,-488.203125845335,-660.546067962637
1.6375,-321.931313485013,-444.504571463131
1.65,-108.228906411684,-159.612502079821
1.6625,120.078500662328,150.957421350949
1.675,328.222379641357,439.914373029482
1.6875,484.787041522698,663.037815787943
1.7,566.466533752877,785.970598334052
1.7125,561.513395054213,789.492635336985
1.725,471.436196385344,672.530767117822
1.7375,310.651985563684,452.408313854316
1.75,104.174119384461,162.256871924438
1.7625,-116.24130247348,-153.909578569616
1.775,-317.05365348501,-447.973608893277
1.7875,-467.961195252369,-674.93819523558
1.8,-546.519545838786,-799.867206459753
1.8125,-541.480576020581,-803.265222587759
1.825,-454.372844078817,-684.088751972875
1.8375,-299.175586632008,-460.018665726098
1.85,-100.065844333075,-164.812805881946
1.8625,112.337998220808,156.769898185287
1.875,305.686272808032,455.748191596442
1.8875,450.837908415339,686.407232236251
1.9,526.232672235026,813.260125107734
1.9125,521.109206253115,816.527189883706
1.925,437.02738484636,695.217839757469
1.9375,287.512387503753,467.338295361638
1.95,95.8937143267816,167.25975239583
1.9625,-108.358797627375,-159.525537710717
1.97499999999999,-294.13005629327,-463.236411473636
1.98749999999999,-433.435413745922,-697.441881524682
1.99999999999999,-505.61842587756,-826.139247645701
2.01249999999999,-500.414474719945,-829.277326288044
2.02499999999999,-419.412629393299,-705.908702218697
2.03749999999999,-275.673167181771,-474.369349100141
2.04999999999999,-91.6572131664626,-169.597791132637
2.06249999999999,104.312032501477,162.174275751414
2.07499999999999,282.394678183674,470.43689785707
2.08749999999999,415.762317806434,708.042214866147
2.09999999999999,484.688456534855,838.499781250204
2.11249999999999,479.406335941849,841.505460842191
2.12499999999999,401.53170061835,716.155161533774
2.13749999999999,263.661536380531,481.105222717141
2.14999999999999,87.3625826009773,171.830531353354
2.16249999999999,-100.202560975028,-164.730670677911
2.17499999999999,-270.474907186903,-477.332883421587
2.18749999999999,-397.83207686704,-718.200094646718
2.19999999999999,-463.452611077611,-850.332728687525
2.21249999999999,-458.097751151979,-853.207684188665
2.22499999999999,-383.392053755163,-725.938178255265
2.23749999999999,-251.483846725478,-487.536590619704
2.24999999999999,-83.0131476952692,-173.95822038641
2.26249999999999,96.0317420668862,167.184861826676
2.27499999999999,258.385374511229,483.930586175316
2.28749999999999,379.646476110542,727.899627839235
2.29999999999999,441.923207154004,861.625598622972
2.31249999999999,436.496594438904,864.364154901488
2.32499999999999,365.016391416912,735.275475772871
2.33749999999999,239.136824472319,493.639226402641
2.34999999999999,78.615438653203,175.97557996111
2.36249999999999,-91.7972526508573,-169.528717011605
2.37499999999999,-246.134897594266,-490.22480980092
2.38749999999999,-361.219375844314,-737.131321543861
2.39999999999999,-420.113723408135,-872.369589693722
2.41249999999999,-414.61906311636,-874.967192093806
2.42499999999999,-346.410453499516,-744.13971590789
2.43749999999999,-226.643008686389,-499.4339471252
2.44999999999999,-74.1638731858181,-177.875299442158
2.46249999999999,87.5014082490841,171.757421053943
2.47499999999999,233.727873211738,496.204259067298
2.48749999999999,342.566091070126,745.897895100036
2.49999999999999,398.04102642141,882.556580384538
2.51249999999999,392.483209884382,885.015840452391
2.52499999999999,327.587548830504,752.530462774432
2.53749999999999,214.015943365579,504.928787989673
2.54999999999999,69.6608131499758,179.640708993921
2.56249999999999,-83.1485941224702,-173.87064933774
2.57499999999999,-221.175861171493,-501.865223036001
2.58749999999999,-323.701277041085,-754.19378162146
2.59999999999999,-375.721783358236,-892.186147253814
2.61249999999999,-370.106160323434,-894.507169295181
2.62499999999999,-308.562413301666,-760.44523018279
2.63749999999999,-201.254122465873,-510.10035045062
2.64999999999999,-65.1258791895296,-181.332076556879
2.66249999999999,78.7559192332751,175.90857676545
2.67499999999999,208.484012353944,507.205533851356
2.68749999999999,304.63671132115,762.012716592557
2.69999999999999,353.171932781948,901.258000337305
2.71249999999999,347.499404178452,903.438696250261
2.72499999999999,289.343422846225,767.885868335007
2.73749999999999,188.365892594977,514.945126474225
2.74999999999999,60.5484584836973,182.899023862098
2.76249999999999,-74.3115794817441,-177.818120822657
2.77499999999999,-195.666716683826,-512.237203520401
2.78749999999999,-285.379675920615,-769.350409293238
2.79999999999999,-330.399206428014,-909.762982345702
2.81249999999999,-324.672921175265,-911.799761974913
2.82499999999999,-269.944807928877,-774.844496021164
2.83749999999999,-175.355280468706,-519.464043717201
2.84999999999999,-55.9297359222833,-184.347169011427
2.86249999999999,69.815471516912,179.602377849114
2.87499999999999,182.728310327455,516.962598441433
2.88749999999999,265.941647953758,776.198663423464
2.89999999999999,307.417316054524,917.691832088517
2.91249999999999,301.640183630071,919.582496933734
2.92499999999999,250.373842793554,781.308707967584
2.93749999999999,162.236251710704,523.656795574538
2.94999999999999,51.2745089352776,185.671543922117
2.96249999999999,-65.2773050752791,-181.279718110342
2.97499999999999,-169.669473183186,-521.331101286734
2.98749999999999,-246.338292414516,-782.573969487794
2.99999999999999,-284.239716751142,-925.034756589702
3.01249999999999,-278.417416363408,-926.78078182328
3.02499999999999,-230.643907031125,-787.271411501033
3.03749999999999,-149.014112580602,-527.51774758259
3.04999999999999,-46.5861947569545,-186.879605396651
3.06249999999999,60.6956279898184,182.846895158042
3.07499999999999,156.502235377031,525.374773886912
3.08749999999999,226.579327295621,788.437942725656
3.09999999999999,260.884440369873,931.789935625334
3.11249999999999,255.019930090239,933.38833892425
3.12499999999999,210.770937626808,792.737252619616
3.13749999999999,135.700236322796,531.038907858905
3.14999999999999,41.8727290705309,187.977547249708
3.16249999999999,-56.079175914158,-184.300570362377
3.17499999999999,-143.238465946504,-529.084917501861
3.18749999999999,-206.678231967949,-793.79815989923
3.19999999999999,-237.367959585333,-937.958399982186
3.21249999999999,-231.465704896186,-939.406122676579
3.22499999999999,-190.767478855697,-797.705103338476
3.23749999999999,-122.302150552837,-534.224659704843
3.24999999999999,-37.134163940241,-188.952560904897
3.26249999999999,51.4251956926052,185.629490047619
3.27499999999999,129.887587521841,532.465472268738
3.28749999999999,186.650650723663,798.65881227505
3.29999999999999,213.706064555388,943.534673139952
3.31249999999999,207.768816276076,944.834865883372
3.32499999999999,170.648259856752,802.171075612828
3.33749999999999,108.829721881055,537.082671370021
3.34999999999999,32.3710316831875,189.80576306773
3.36249999999999,-46.7424788661686,-186.840558021013
3.37499999999999,-116.459392996747,-535.513348612547
3.38749999999999,-166.505521764231,-803.021316464693
3.39999999999999,-189.91043631824,-948.519153942304
3.41249999999999,-183.94211027424,-949.671313100142
3.42499999999999,-150.419656972205,-806.131918375815
3.43749999999999,-95.2876242756404,-539.600170078457
3.44999999999999,-27.5855765785792,-190.542967415275
3.46249999999999,42.0290938332535,187.942132072857
3.47499999999999,102.95292567372,538.214347245458
3.48749999999999,146.258439422606,806.883763783657
3.49999999999999,165.994509363118,952.906126985315
3.51249999999999,159.998148935347,953.909833259178
3.52499999999999,130.095893159392,809.582276045624
3.53749999999999,81.6844336196915,541.774125715975
3.54999999999999,22.7830601981831,191.162787213901
3.56249999999999,-37.2891797714834,-188.924359758644
3.57499999999999,-89.3833679024856,-540.585807696903
3.58749999999999,-125.916432600445,-810.229730119944
3.59999999999999,-141.972555829143,-956.689125776341
3.61249999999999,-135.952163448039,-957.540657406627
3.62499999999999,-109.687681749402,-812.521639550558
3.63749999999998,-68.0302124846554,-543.605634079074
3.64999999999998,-17.9672536706962,-191.651434674406
3.66249999999998,32.5259618146868,189.78253907055
3.67499999999998,75.7559307833573,542.6141428057
3.68749999999998,105.494830450456,813.059535015538
3.69999999999998,117.860588438965,959.863149943491
3.71249999999998,111.820721085613,960.561547581604
3.72499999999998,89.2143058182059,814.943661601582
3.73749999999998,54.3314549687423,545.08854080066
3.74999999999998,13.1387113628037,192.023321891196
3.76249999999998,-27.7403136551758,-190.522570760549
3.77499999999998,-62.0815384219304,-544.291799890524
3.78749999999998,-85.0071467105051,-815.376321908847
3.79999999999998,-93.6761945834214,-962.426380440081
3.81249999999998,-87.6210570468709,-962.974501263027
3.82499999999998,-68.6847559468894,-816.850544531487
3.83749999999998,-40.6035122350271,-546.231059137077
3.84999999999998,-8.3051515863583,-192.275753924303
3.86249999999998,22.9385135417858,191.142638745936
3.87499999999998,48.3699445711401,545.624277125849
3.88749999999998,64.4691171029584,817.178070739486
3.89999999999998,69.4369016773119,964.386873374869
3.91249999999998,63.3705637601826,964.783037722069
3.92499999999998,48.1169533653214,818.242635945948
3.93749999999998,26.8505682768543,547.033279196095
3.94999999999998,3.46426839029394,192.405996377816
3.96249999999999,-18.1220641785732,-191.634283889384
3.97499999999999,-34.6289605874074,-546.621197699416
3.98749999999999,-43.8942149285079,-818.464861318489
3.99999999999999,-45.1571141764727,-965.744607464244
4.01249999999999,-39.0821901624026,-965.988857737608
4.02499999999999,-27.5172093171849,-819.12276685857
4.03749999999999,-13.081703181114,-547.490296058768
4.04999999999999,1.37505180291746,-192.419728982416
4.06249999999999,13.2982655423738,192.014089847975
4.07499999999999,20.8693550722582,547.271559614309
4.08749999999999,23.2905360934389,819.242153176063
4.09999999999999,20.8478941724717,966.493848130786
4.11249999999999,14.7675420241924,966.584882285912
4.12499999999999,6.90100802761816,819.493652600889
4.13749999999999,-0.698030517903414,547.597662198478
4.14999999999999,-6.21752594792977,192.312273042074
4.16249999999999,-8.46389367288924,-192.273504630142
4.17499999999999,-7.09392768047133,-547.578133428368
4.18749999999999,-2.67129617826697,-819.503537005464
4.19999999999999,3.47612392285089,-966.633296194598
4.21249999999999,9.55806649212868,-966.572595633415
4.22499999999999,13.72084370026,-819.337976240998
4.23749999999999,14.4765329246294,-547.362721594787
4.24999999999999,11.0548521983956,-192.075207738626
4.26249999999999,3.62495272312698,192.406145860607
4.27499999999999,-6.68478717517369,547.542723551826
4.28749999999999,-17.951321683159,819.239823551369
4.29999999999999,-27.7991392150577,966.159809375674
4.3125,-33.8769573800827,965.945278771511
4.325,-34.3331907268661,818.662323802679
4.3375,-28.2459643179675,546.779071318175
4.35,-15.8864526608136,191.716380265623
4.3625,1.21917630405636,-192.420040836981
4.375,20.4628173766759,-547.151555336889
4.3875,38.5592949884991,-818.460601972432
4.4,52.1012764512718,-965.070857145102
4.4125,58.1716538658205,-964.70346056046
4.425,54.9223906053631,-817.471515650394
4.4375,41.9938166670056,-545.843237963181
4.45,20.7046586602794,-191.249551690861
4.4625,-6.06083880629744,192.316114915246
4.475,-34.2233633546896,546.413856304924
4.4875,-59.1411529011623,817.163675667827
4.5,-76.3671648299197,963.374120106006
4.5125,-82.4256456429689,962.855357969016
4.525,-75.4733811632884,815.76546957602
4.5375,-55.7143463173324,544.573850057573
4.55,-25.5077777927685,190.649267964561
4.5625,10.8981583789025,-192.082726754413
4.575,47.9606802489353,-545.337641482684
4.5875,79.6809985034566,-815.349338176953
4.6,100.581313880439,-961.074240282838
4.6125,106.62577959863,-960.404733729415
4.625,95.9729386810281,-813.546966062537
4.6375,69.3999381396617,-542.965386863275
4.65,30.2969128660558,-189.933354928914
4.66250000000001,-15.7256811059947,191.73130326801
4.67500000000001,-61.6644980302019,543.919729404371
4.68750000000001,-100.172378078032,813.028217705976
4.70000000000001,-124.733012221629,958.171192329994
4.71250000000001,-130.758970885213,957.35109217942
4.72500000000001,-116.416429432351,810.819843089186
4.73750000000001,-83.041406785238,541.009285924255
4.75000000000001,-35.0702343357932,189.102541882138
4.76250000000001,20.5460300200958,-191.268564022171
4.77500000000001,75.3324433637735,-542.150746019601
4.78750000000001,120.601185419415,-810.198229923551
4.80000000000001,148.807382784111,-954.665224234976
4.81250000000001,154.811968794781,-953.694512481476
4.82500000000001,136.786353902848,-807.580738907128
4.83750000000001,96.6319961428528,-538.711759022611
4.85000000000001,39.8197542827799,-188.147755261137
4.86250000000001,-25.3525309900631,190.674736399986
4.87500000000001,-88.9551208799172,540.053676468156
4.88750000000001,-140.954357024164,806.85154696196
4.90000000000001,-172.788064433372,950.554806959994
4.91250000000001,-178.766854788236,949.433068300278
4.92500000000001,-157.070664485456,803.823370673026
4.93750000000001,-110.16077544103,536.074871053876
4.95000000000001,-44.5394458819083,187.070730739586
4.96250000000001,30.1424746731596,-189.960339904407
4.97500000000001,102.520293093172,-537.609141757094
4.98750000000001,161.21705668633,-802.993095709482
5.00000000000001,196.657916349713,-945.839464512985
5.01250000000002,202.606579135138,-944.566204624649
5.02500000000002,177.250565746397,-799.562594716859
5.03750000000002,123.617731271889,-533.091945865076
5.05000000000002,49.2353902585546,-185.877282127794
5.06250000000002,-34.9154293965358,189.129071069601
5.07500000000002,-116.017307023964,534.817548569257
5.08750000000002,-181.377363123271,798.628621796279
5.10000000000002,-220.400167131348,940.522787005011
5.11250000000002,-226.315021290246,939.10301500319
5.12500000000002,-197.318498118507,794.795999096562
5.13750000000002,-136.995045506779,529.776591631989
5.15000000000002,-53.8972032923391,184.568523903153
5.16250000000002,39.664352244337,-188.176457247622
5.17500000000002,129.440206677474,-531.69228787455
5.18750000000002,201.419244100982,-793.756640286674
5.20000000000002,244.001965447845,-934.61874533072
5.21250000000002,249.878271222418,-933.051075628952
5.22500000000002,217.258091702831,-789.527531400255
5.23750000000002,150.287112521547,-526.134092674991
