"Time [ms]","InducedVoltage(Cos_Winding) [V]","InducedVoltage(Sin_Winding) [V]"
0,0.00203363899728135,1.10931373153462
0.0125,-0.00309050419219393,0.962723190224256
0.025,-0.00821464738166921,0.816132648913894
0.0375,-0.0107762612445415,0.545271847331308
0.05,-0.00973248340920476,0.191406513135
0.0625,-0.00488586961617334,-0.191587587582463
0.075,0.00301729831154839,-0.545370407110992
0.0875,0.0124261870770681,-0.816079250230071
0.1,0.0212562804832427,-0.962496955815737
0.1125,0.0273106725120072,-0.962345714090683
0.125,0.0287460337068739,-0.815667356691331
0.1375,0.0244912587769816,-0.544837175666608
0.15,0.0145437120573602,-0.191098843951173
0.1625,6.82528992141199e-05,0.191647451855145
0.175,-0.0167385752043444,0.545125676266753
0.1875,-0.0329547071922013,0.815512080689554
0.2,-0.0454666475843009,0.961663882723765
0.2125,-0.0515156667898848,0.961360323654081
0.225,-0.0492606656193478,0.81469479663779
0.2375,-0.0381934344753864,0.544049230476803
0.25,-0.0193480915934303,0.190675288195095
0.2625,0.00475601057295086,-0.191591710334949
0.275,0.0304477886001338,-0.544534300452451
0.2875,0.053464568638232,-0.814433464939444
0.3,0.0696494907535812,-0.960220164369203
0.3125,0.0756899565815521,-0.959764251167907
0.325,0.0697443735257161,-0.813202503970547
0.3375,0.0518703840408554,-0.542915023147405
0.35,0.0241406275496027,-0.190128826365102
0.3625,-0.009573897248806,0.191415456619343
0.375,-0.0441390264561215,0.543597917083449
0.3875,-0.0739424480904239,0.812830988663286
0.4,-0.0937899699889702,0.958166243419902
0.4125,-0.0998158326589716,0.957557110657929
0.425,-0.0901840618234666,0.811187929352607
0.4375,-0.0655158201483699,0.541439771257147
0.45,-0.0289163541507755,0.18945208494193
0.4625,0.0143881287396089,-0.19110715592501
0.475,0.05780515627017,-0.542317845591633
0.4875,0.0943692249208516,-0.81071099206975
0.5,0.117869558994359,-0.955500903751553
0.5125,0.123877536174742,-0.954740489033049
0.525,0.11056520153868,-0.808658275234783
0.5375,0.0791173400277906,-0.539620576142953
0.55,0.0336743558051533,-0.188670118011955
0.5625,-0.0191925823468284,0.19068918893134
0.575,-0.0714321445096184,0.540688772387684
0.5875,-0.114738228228525,0.808079386464865
0.6,-0.141871478605424,0.952232111766437
0.6125,-0.1478579227646,0.95132017853769
0.625,-0.130877064176747,0.805625144078975
0.6375,-0.0926670422354793,0.537456049496443
0.65,-0.0384088971946967,0.187768120530703
0.6625,0.0239851071432243,-0.190146911703401
0.675,0.0850116009504993,-0.538719155403196
0.6875,0.135030912278509,-0.804938701342084
0.7,0.165783306198032,-0.948364725315405
0.7125,0.17174576409854,-0.947305358010464
0.725,0.151102499864735,-0.802081879049603
0.7375,0.106160674838394,-0.534961902089264
0.75,0.0431212113837041,-0.186742195605714
0.7625,-0.028759028731011,0.189479746017245
0.775,-0.0985390519133408,0.536420088120443
0.7875,-0.155240045699667,0.801288595975174
0.8,-0.189592024039384,0.943902905761846
0.812500000000001,-0.195526725202656,0.942693776482866
0.825000000000001,-0.171236214899453,0.798034496481928
0.837500000000001,-0.119588361044271,0.532128289324803
0.850000000000001,-0.0478063701923319,0.185598283974632
0.862500000000001,0.0335173449406248,-0.188696239058222
0.875000000000001,0.112003463814042,-0.533772009306596
0.887500000000001,0.175353641755634,-0.797142436148861
0.900000000000001,0.213283221083208,-0.938844162856512
0.912500000000001,0.219185201778102,-0.9374865548042
0.925000000000001,0.191263548441566,-0.793483032840241
0.937500000000001,0.13293825273975,-0.528951248429126
0.950000000000001,0.0524662462944766,-0.184344652839524
0.962500000000001,-0.0382565015358867,0.18780130782347
0.975000000000001,-0.125400210007337,0.530788798371256
0.987500000000001,-0.195357127976727,0.792486956077934
1,-0.236839409990208,0.933188427745231
1.0125,-0.242705998372461,0.931681723802309
1.025,-0.21117006116966,0.788424046742568
1.0375,-0.146207181703781,0.525445240049088
1.05,-0.0570839128036926,0.182962085459319
1.0625,0.0429693985228304,-0.186779249357333
1.075,0.138717200846691,-0.527472026704489
1.0875,0.215234977652307,-0.787323159115617
1.1,0.260245577339516,-0.926938661967285
1.1125,0.266071358385201,-0.925283784274256
1.125,0.230938939276249,-0.782862560587381
1.1375,0.159382063948541,-0.521601225340375
1.15,0.0616689157377508,-0.181468060866652
1.1625,-0.0476553441725402,0.185638640485123
1.175,-0.151945405963559,0.523816679325872
1.1875,-0.234976290816199,0.781660066307549
1.2,-0.28348423670581,0.920100246041023
1.2125,-0.289266503962394,0.9182996600723
1.225,-0.250562014496912,0.776809507805597
1.2375,-0.172452724881549,0.517429072985478
1.25,-0.0662142124941159,0.179862052818537
1.2625,0.0523134601803824,-0.18438500001782
1.275,0.165071669414097,-0.519825238808987
1.2875,0.254568178440801,-0.775507755051432
1.3,0.306542148164615,-0.912682300878096
1.3125,0.312276383854455,-0.910738654655549
1.325,0.270024774333061,-0.770267203557197
1.3375,0.185416959289099,-0.512934298492246
1.35,0.0707194826597217,-0.178141892157547
1.3625,-0.0569337124463191,0.183006086514977
1.375,-0.178100154691861,0.515515027264173
1.3875,-0.273996913072012,0.768866183006307
1.4,-0.329406820291514,0.904694753151843
1.4125,-0.335091722465803,0.902608785838873
1.425,-0.289318220031384,0.763237270284903
1.4375,-0.198264513034623,0.508119696073775
1.45,-0.075178787008207,0.176310122089356
1.4625,0.0615190896496574,-0.181520108561399
1.475,0.191012872611265,-0.510877738774174
1.4875,0.293255084199334,-0.76174104334641
1.5,0.352066196498278,-0.896136984661058
1.5125,0.357696580174041,-0.893908349000067
1.525,0.308433678333232,-0.755735423611622
1.5375,0.210986289187066,-0.50297565851846
1.55,0.079592180648226,-0.174368044344868
1.5625,-0.0660671841454464,0.17991806142225
1.575,-0.203809013613816,0.505922584146538
1.5875,-0.312330011964474,0.754136474052297
1.6,-0.374502519035934,0.887010356910023
1.6125,-0.380076424315109,0.884640747908433
1.625,-0.327351693118678,0.74774995571959
1.6375,-0.223574031621113,0.497514765445992
1.65,-0.0839533195552969,0.172310960680706
1.6625,0.0705719047611502,-0.178201076872943
1.675,0.216474082458399,-0.500644683480338
1.6875,0.331206558243256,-0.746050457723136
1.7,0.396702923616685,-0.877320212711732
1.7125,0.40221367970179,-0.874810917418372
1.725,0.346059837259372,-0.739285223272665
1.7375,0.236022318294388,-0.491741388293913
1.75,0.0882586048935345,-0.170138403552667
1.7625,-0.0750340894122309,0.176368087278593
1.775,-0.229001423623448,0.495044319556826
1.7875,-0.349871402709549,0.737492869533422
1.8,-0.418647524875393,0.86707065720273
1.8125,-0.424093986202356,0.864425688781197
1.825,-0.364547391690973,0.730354258631291
1.8375,-0.24831573614834,0.485653218108544
1.85,-0.0925137818348501,0.167873752933936
1.8625,0.0794499675654853,-0.174431872866562
1.875,0.241382113765066,-0.489130697787293
1.8875,0.368311951274582,-0.728466038123216
1.9,0.440326863794326,-0.856278310685781
1.9125,0.445702252668002,-0.853495784848643
1.925,0.382805598232451,-0.720965956436098
1.9375,0.26045147734556,-0.479259131556588
1.95,0.0967068088412513,-0.165501381675491
1.9625,-0.0838132216388613,0.172379582768549
1.97499999999999,-0.253609732253122,0.482912723002485
1.98749999999999,-0.386517043747342,0.71898158983584
1.99999999999999,-0.461726139970042,0.844948359918309
2.01249999999999,-0.467030581772617,0.842031841160712
2.02499999999999,-0.400819877719648,0.711127255082961
2.03749999999999,-0.272425959401733,0.472569859311527
2.04999999999999,-0.100838460430559,0.163019064419811
2.06249999999999,0.0881184095399754,-0.170215355848857
2.07499999999999,0.265678965695369,-0.476396984453999
2.08749999999999,0.404481962663194,-0.709047848709959
2.09999999999999,0.482835541998354,-0.833087831944045
2.11249999999999,0.488064692666233,-0.830038425072005
2.12499999999999,0.418583399031799,-0.700838953382767
2.13749999999999,0.284231392044637,-0.465585173064603
2.14999999999999,0.104907357319655,-0.160435093884135
2.16249999999999,-0.0923745965268821,0.16795104772258
2.17499999999999,-0.277576470087503,0.469571231765134
2.18749999999999,-0.422193918491391,0.698672967701248
2.19999999999999,-0.503641856529027,0.820702399196148
2.21249999999999,-0.508794425840359,0.817525202215142
2.22499999999999,-0.436075973343161,0.690099227859048
2.23749999999999,-0.295856119977199,0.458306101076043
2.24999999999999,-0.108914243944226,0.1577511795203
2.26249999999999,0.0965731393087928,-0.16558292355812
2.27499999999999,0.289302104010172,-0.462451208957156
2.28749999999999,0.439637194723115,-0.687851227680888
2.29999999999999,0.524128325683012,-0.807796351425067
2.31249999999999,0.529198899089039,-0.80448967096146
2.32499999999999,0.453301505539252,-0.678933278646503
2.33749999999999,0.307283810105958,-0.450720588488614
2.34999999999999,0.112848298420505,-0.154970744960155
2.36249999999999,-0.100708430806539,0.163105591255006
2.37499999999999,-0.300845524536298,0.45504218307367
2.38749999999999,-0.456797537776031,0.676589548839961
2.39999999999999,-0.544281020654422,0.794376960838094
2.41249999999999,-0.549264164545648,0.790941608903032
2.42499999999999,-0.470233872248329,0.667334884148478
2.43749999999999,-0.318518126648739,0.442854143180116
2.44999999999999,-0.11670880986956,0.152086139410622
2.46249999999999,0.104775298951899,-0.160518683959616
2.47499999999999,0.312195754005242,-0.447342308340719
2.48749999999999,0.473669320441974,-0.664901928551637
2.49999999999999,0.564084600578787,-0.780453855708217
2.51249999999999,0.568979972299794,-0.776895333450049
2.52499999999999,0.486865938004086,-0.655313918936138
2.53749999999999,0.329559208068509,-0.434722677880735
2.54999999999999,0.120479921551607,-0.149091187546795
2.56249999999999,-0.108771846331835,0.157825515675535
2.57499999999999,-0.323342600723583,0.4393590952996
2.58749999999999,-0.490240226999086,0.652797763288577
2.59999999999999,-0.583530366537152,0.766040744468444
2.61249999999999,-0.58833498339664,0.762363514442806
2.62499999999999,-0.503188292636746,0.642881546120637
2.63749999999999,-0.340388891752886,0.42631447577294
2.64999999999999,-0.124201522557461,0.146029923908286
2.66249999999999,0.112719777430031,-0.15505861599683
2.67499999999999,0.334284553291053,-0.431095943950714
2.68749999999999,0.506499699628469,-0.640283868046458
2.69999999999999,0.60260966070753,-0.751151033132972
2.71249999999999,0.607321517875628,-0.747355199583153
2.72499999999999,0.519197265902723,-0.630046317373571
2.73749999999999,0.351000568283469,-0.417635503941165
2.74999999999999,0.127837550678307,-0.142870703712778
2.76249999999999,-0.116585346330644,0.152184226596391
2.77499999999999,-0.345021283764383,0.422570319137005
2.78749999999999,-0.522439576418998,0.627365197044998
2.79999999999999,-0.621310696937988,0.735787982713167
2.81249999999999,-0.625924796543626,0.731874392613867
2.82499999999999,-0.534881105288848,0.616817864779397
2.83749999999999,-0.361391187058662,0.408688712581334
2.84999999999999,-0.131390955858206,0.139617115639601
2.86249999999999,0.120368796089677,-0.149203274409452
2.87499999999999,0.355553088707109,-0.413787949440063
2.88749999999999,0.538047786430112,-0.614047820806237
2.89999999999999,0.639618374277112,-0.719959041804199
2.91249999999999,0.644132530689186,-0.715928795293503
2.92499999999999,0.550223377185392,-0.603194918397042
2.93749999999999,0.371554614195732,-0.399487269848019
2.94999999999999,0.134856895871389,-0.136270409261273
2.96249999999999,-0.124081014103238,0.146133153167986
2.97499999999999,-0.365839084176757,0.404725498201254
2.98749999999999,-0.553328295407126,0.600352296186515
2.99999999999999,-0.65751902501067,0.703670446092084
3.01249999999999,-0.661930724234832,0.699529268133742
3.02499999999999,-0.565212908982835,0.58918590952607
3.03749999999999,-0.381483083583351,0.390032230800337
3.04999999999999,-0.13823833346098,0.132836920417502
3.06249999999999,0.127718963671174,-0.14297049237322
3.07499999999999,0.375898030788709,-0.395408222597358
3.08749999999999,0.568247091851231,-0.586269143068059
3.09999999999999,0.675000964748856,-0.686936471647063
3.11249999999999,0.679306330719846,-0.682685516426302
3.12499999999999,0.579844712071663,-0.574805940369539
3.13749999999999,0.391163910678335,-0.380328785462686
3.14999999999999,0.141537598938672,-0.129328986402518
3.16249999999999,-0.131276477942213,0.139722782456379
3.17499999999999,-0.385717534484007,0.385842044156868
3.18749999999999,-0.582801947636462,0.571812719944798
3.19999999999999,-0.692056593142231,0.669771682908339
3.21249999999999,-0.696250432856686,0.665413457844613
3.22499999999999,-0.594111712922634,0.560066628045297
3.23749999999999,-0.40059813942273,0.370385473800516
3.24999999999999,-0.144742626988594,0.125736733785298
3.26249999999999,0.13474529377302,-0.136379358731671
3.27499999999999,0.395295194901766,-0.37603710669938
3.28749999999999,0.596988629670919,-0.556999062929709
3.29999999999999,0.708673794679604,-0.652186765879744
3.31249999999999,0.71275744408015,-0.647724723215374
3.32499999999999,0.608003143430219,-0.544977569416432
3.33749999999999,0.409786242909009,-0.360215909951477
3.34999999999999,0.147855654274826,-0.122061605614313
3.36249999999999,-0.138127183551132,0.132952388067025
3.37499999999999,-0.404624678700644,0.365998333855731
3.38749999999999,-0.610803607777594,0.541837021024729
3.39999999999999,-0.724847015500484,0.634192066016763
3.41249999999999,-0.728818345093898,0.629629481317982
3.42499999999999,-0.621512852640841,0.529542478792024
3.43749999999999,-0.41871483585113,0.349816384022951
3.44999999999999,-0.150879667911513,0.118312570735827
3.46249999999999,0.14142919520642,-0.129444901554106
3.47499999999999,0.413694356769031,-0.355723054669118
3.48749999999999,0.624237731923157,-0.526336648065566
3.49999999999999,0.740564418472877,-0.61579631130266
3.51249999999999,0.744421755519283,-0.611136408172116
3.52499999999999,0.634629396523741,-0.513772232243679
3.53749999999999,0.427377121054187,-0.339194578022464
3.54999999999999,0.153810821196917,-0.114486993739054
3.56249999999999,-0.144641022148579,0.125856339906789
3.57499999999999,-0.4225108571872,0.345225558426373
3.58749999999999,-0.637273922454017,0.510498495902521
3.59999999999999,-0.755813293376311,0.597009818663549
3.61249999999999,-0.759551667970535,0.592253726822503
3.62499999999999,-0.647347677924318,0.497675399015557
3.63749999999998,-0.43576843653412,0.328355048153652
3.64999999999998,-0.156634885515097,0.110588073973781
3.66249999999998,0.147757533477993,-0.122183334112639
3.67499999999998,0.431059496061227,-0.33451016811484
3.68749999999998,0.649904197759624,-0.494335657399512
3.69999999999998,0.77058144155097,-0.577843089016781
3.71249999999998,0.774197526010541,-0.572993535783852
3.72499999999998,0.659651771225847,-0.481264367791986
3.73749999999998,0.443882214054554,-0.31730767741594
3.74999999999998,0.159363791701032,-0.106618567510055
3.76249999999998,-0.150783613763955,0.11843433832783
3.77499999999998,-0.43932883870448,0.323578768401158
3.78749999999998,-0.662124366091596,0.477860542347514
3.79999999999998,-0.784858485339975,0.558310500104149
3.81249999999998,-0.788352286631017,0.553372266305303
3.82499999999998,-0.671539069327821,0.464550549670086
3.83749999999998,-0.451716954186534,0.306062855274214
3.84999999999998,-0.161992063060716,0.10258473278849
3.86249999999998,0.153714685702448,-0.114610004946014
3.87499999999998,0.447318581699164,-0.312445704065468
3.88749999999998,0.673924588014168,-0.461085798799406
3.89999999999998,0.798642518731492,-0.538428896857859
3.91249999999998,0.80201057332459,-0.533406168672776
3.92499999999998,0.683001069250925,-0.447544747314602
3.93749999999998,0.459270160293115,-0.294629285546193
3.94999999999998,0.164519847491226,-0.0984840150663888
3.96249999999999,-0.156541312055465,0.110712913011213
3.97499999999999,-0.455034383207189,0.30111721059891
3.98749999999999,-0.685299517812615,0.444021709156713
3.99999999999999,-0.811926438226741,0.518212384463196
4.01249999999999,-0.815167837034043,0.513106530524042
4.02499999999999,-0.694036492849109,0.430257410870286
4.03749999999999,-0.466533873218223,0.2830084507749
4.04999999999999,-0.166946691430454,0.0943260957117102
4.06249999999999,0.159276362944961,-0.10675042962362
4.07499999999999,0.462460049135578,-0.289600656133525
4.08749999999999,0.696248582078613,-0.426679622954378
4.09999999999999,0.824699901346032,-0.497667779754063
4.11249999999999,0.827811118919428,-0.492481583239236
4.12499999999999,0.704641606493645,-0.412702129402251
4.13749999999999,0.473500281370563,-0.271205297951197
4.14999999999999,0.169268576685344,-0.0901067224551591
4.16249999999999,-0.161911598145399,0.102719984196329
4.17499999999999,-0.46959645914878,0.277900049020975
4.18749999999999,-0.706760117804608,0.409067631128841
4.19999999999999,-0.83695340934349,0.476808069286873
4.21249999999999,-0.839935146638926,0.471544488021043
4.22499999999999,-0.714793539481728,0.394881068696111
4.23749999999999,-0.480170219286361,0.259232999616076
4.24999999999999,-0.17147724800191,0.0858263480468754
4.26249999999999,0.164440622520422,-0.0986217849517057
4.27499999999999,0.476439169781957,-0.266026604848172
4.28749999999999,0.716818517846336,-0.391192603556525
4.29999999999999,0.848677844261075,-0.45564391155783
4.3125,0.851524299156287,-0.450307555401159
4.325,0.724492298170695,-0.376809204306788
4.3375,0.486534843709937,-0.24709484667168
4.35,0.173576904818075,-0.0814908849526862
4.3625,-0.1668682696693,0.0944611131493217
4.375,-0.482973634667824,0.253977436584727
4.3875,-0.726426129439389,0.37307261817186
4.4,-0.859860313080099,0.434191323961074
4.4125,-0.862571139217359,0.428785103929713
4.425,-0.733734179132842,0.358500744616557
4.4375,-0.492583856704472,0.234799974915857
4.45,-0.175578849009139,0.0771115001099971
4.4625,0.169193865392148,-0.0902436525323505
4.475,0.489201601124198,-0.241769609027217
4.4875,0.73557288346522,-0.354717328627499
4.5,0.870499675110474,-0.412466733869095
4.5125,0.873073435009993,-0.406995597863533
4.525,0.742512533545218,-0.339967655707081
4.5375,0.498333190912046,-0.222360844877582
4.55,0.177455408162698,-0.0726799899317671
4.5625,-0.171405604515813,0.0859649529046135
4.575,-0.495124299055481,0.229413378209057
4.5875,-0.744252442612369,0.33613965037847
4.6,-0.880592222473602,0.3904861073718
4.6125,-0.88302952425472,0.38495164644207
4.625,-0.750822258006413,0.321223331102917
4.6375,-0.503770202997187,0.209784634064329
4.65,-0.17922643470145,0.0682026127469977
4.66250000000001,0.17351050180727,-0.0816358220064265
4.67500000000001,0.500736546046578,-0.216914976360493
4.68750000000001,0.752468797994176,-0.317352212595295
4.70000000000001,0.890132575163091,-0.36825921382519
4.71250000000001,0.892430474037207,-0.362665628324142
4.72500000000001,0.758665097091146,-0.302275376175097
4.73750000000001,0.508885014750938,-0.197072526943866
4.75000000000001,0.180888833627172,-0.0636828476338285
4.76250000000001,-0.175516272282337,0.0772568605333136
4.77500000000001,-0.506024430654057,0.204275140869534
4.78750000000001,-0.760215295375123,0.298365402198727
4.80000000000001,-0.899113422247162,0.345798975906029
4.81250000000001,-0.901270204475849,0.340149160231371
4.82500000000001,-0.766028519774978,0.283135991573744
4.83750000000001,-0.51367897536068,0.184236037227752
4.85000000000001,-0.182433763156815,0.0591199832998014
4.86250000000001,0.17739899587939,-0.0728270115846339
4.87500000000001,0.511009993083774,-0.191508783357019
4.88750000000001,0.76747744153968,-0.279186491424523
4.90000000000001,0.907525033336243,-0.323118886345201
4.91250000000001,0.909538523989724,-0.317416229305551
4.92500000000001,0.772900278366444,-0.263812516725025
4.93750000000001,0.51815360418888,-0.17128216844454
4.95000000000001,0.183855944859313,-0.0545220898790313
4.96250000000001,-0.179172093818368,0.0683491171033887
4.97500000000001,-0.515664858549375,0.178620006387924
4.98750000000001,-0.774252379001337,0.259830923712924
5.00000000000001,-0.915359021107329,0.300232957528221
5.01250000000002,-0.917226613078052,0.294480767775954
5.02500000000002,-0.779287302437141,0.244326987389164
