"Time [ms]","InducedVoltage(Cos_Winding) [V]","InducedVoltage(Sin_Winding) [V]"
0,-1.11550523877661,0.00162831098716797
0.0125,-0.968096293363277,-0.00345241937184083
0.025,-0.820687347949948,-0.00853314973084964
0.0375,-0.54831388224926,-0.0110000527628397
0.05,-0.192475170419168,-0.00982343372457634
0.0625,0.192656421814991,-0.00482555869991307
0.075,0.54841425413167,0.00322486091867478
0.0875,0.82063369620862,0.012753521232467
0.1,0.967868322963577,0.0216562321671639
0.1125,0.967715758824038,0.0277233077006628
0.125,0.820218082966967,0.0291075722936003
0.1375,0.547877864622368,0.0247439400165868
0.15,0.192165002698893,0.0146448734607737
0.1625,-0.192717440303136,-2.49775153561406e-06
0.175,-0.54816743556638,-0.0169746897718535
0.1875,-0.820062585479186,-0.0333250559036513
0.2,-0.96702924890087,-0.0459174500736545
0.2125,-0.966723328519234,-0.0519791759398382
0.225,-0.81923968070219,-0.0496653497802704
0.2375,-0.547083654910236,-0.0384749628484169
0.25,-0.191738211050079,-0.0194593670317093
0.2625,0.192660960827427,0.00483684039036668
0.275,0.547572440772848,0.0307130214540606
0.2875,0.818976425795444,0.0538778723898673
0.3,0.965575048919605,0.0701511214512598
0.3125,0.965116563374995,0.0762042784757983
0.325,0.81773667076601,0.0701920702425317
0.3375,0.545941963914561,0.0521806254842852
0.35,0.191187891642098,0.0242619308322868
0.3625,-0.192484461680401,-0.00966482547305971
0.375,-0.546628798970273,-0.0444328879175005
0.3875,-0.817362292506679,-0.0743989220226805
0.4,-0.963507537675444,-0.0943422697074565
0.4125,-0.962894289480948,-0.100380659109348
0.425,-0.815708609656015,-0.0906746138654285
0.4375,-0.544455975204386,-0.0658544231511857
0.45,-0.190506036311089,-0.0290474781646143
0.4625,0.192172211102112,0.0144887581777431
0.475,0.545340212676572,0.0581276618975415
0.4875,0.815228453850719,0.0948686038769051
0.5,0.960824034153615,0.118472150481836
0.5125,0.96005862680164,0.124492703836091
0.525,0.813161238235771,0.111098277557316
0.5375,0.542625066453447,0.0794846697796606
0.55,0.189720115170901,0.0338157434540057
0.5625,-0.191752266463771,-0.0193034940576333
0.575,-0.543700449075851,-0.0717832451666498
0.5875,-0.812578996106004,-0.115280207285741
0.6,-0.957533336144966,-0.142524448258579
0.6125,-0.956614859573754,-0.148523448311533
0.625,-0.810108660782893,-0.131452951068817
0.6375,-0.540446155391611,-0.0930628945615432
0.65,-0.188811305196923,-0.0385602409389467
0.6625,0.191206017259604,0.0241060119370953
0.675,0.541717628779375,0.0853913087306287
0.6875,0.809417591810056,0.135615619874121
0.7,0.953639744215487,0.166486594536846
0.7125,0.952573626644133,0.172461770318504
0.725,0.806541536629043,0.151721050391135
0.7375,0.5379352631618,0.106584891420589
0.75,0.187779073622633,0.043282639048743
0.7625,-0.190535120784264,-0.028890121401683
0.775,-0.539403586234428,-0.0989473811702922
0.7875,-0.805742151682776,-0.155867181112556
0.8,-0.949148642476775,-0.190345667692626
0.812500000000001,-0.947931362120695,-0.196292990987927
0.825000000000001,-0.80246751496855,-0.171897485224607
0.837500000000001,-0.535082813519095,-0.120041095969748
0.850000000000001,-0.186626603952753,-0.0479775887553311
0.862500000000001,0.189745493797224,0.0336583274668242
0.875000000000001,0.536736865949895,0.112440106315792
0.887500000000001,0.801569364909336,0.176023584948031
0.900000000000001,0.94405657101353,0.214087142461452
0.912500000000001,0.942690001095626,0.22000162393911
0.925000000000001,0.79788542668807,0.191967168865232
0.937500000000001,0.531884297679497,0.133419335486124
0.950000000000001,0.185366816423826,0.0526474252984808
0.962500000000001,-0.18884462432799,-0.038407554745118
0.975000000000001,-0.53373486681967,-0.125865339443653
0.987500000000001,-0.796883212609191,-0.196069443383026
1,-0.938363839238113,-0.237693216271555
1.0125,-0.936846917910066,-0.243572118926802
1.025,-0.792793790099665,-0.211915740091225
1.0375,-0.528356716419944,-0.146716343833146
1.05,-0.183974254502802,-0.057274804130237
1.0625,0.187816244944803,0.0431305559644373
1.075,0.530396027891381,0.139210426127916
1.0875,0.791686116448396,0.215989329912131
1.1,0.932073290741382,0.261148695286514
1.1125,0.930407847610481,0.266986745902624
1.125,0.787196783930622,0.231726332310324
1.1375,0.524487248053763,0.15991873903511
1.15,0.182471003090503,0.061869616019533
1.1625,-0.186668267131006,-0.0478262172318819
1.175,-0.526717768085612,-0.152466542706996
1.1875,-0.785985958862667,-0.23577223428081
1.2,-0.925190889700454,-0.284436439357398
1.2125,-0.923379067164807,-0.290230982153813
1.225,-0.781104802933567,-0.251390949803521
1.2375,-0.520288929928292,-0.173017195166156
1.25,-0.180853999476977,-0.066424349307848
1.2625,0.185407224523852,0.0524939365797135
1.275,0.52269908359004,0.16562054250049
1.2875,0.77979453353068,0.255405642948244
1.3,0.917725958937815,0.307543354765593
1.3125,0.915770008064629,0.313289803499237
1.325,0.774520966329687,0.270895148742979
1.3375,0.515764917317378,0.1860090004772
1.35,0.179123756515049,0.0709395356395703
1.3625,-0.184017700452616,-0.0571240830782438
1.375,-0.51836255935359,-0.178676865008692
1.3875,-0.773111361741212,-0.274875831588679
1.4,-0.909688027758379,-0.33045670904651
1.4125,-0.907588868194845,-0.336153752117007
1.425,-0.767446129266796,-0.29022949804555
1.4375,-0.51092171284654,-0.198884413768601
1.45,-0.177281005068921,-0.0754084755661445
1.4625,0.182523528060091,0.0617193798469556
1.475,0.513695886751212,0.191617027570911
1.4875,0.765941599551612,0.294175155452429
1.5,0.901076702073145,0.353164577043822
1.5125,0.898833824609816,0.358806964587409
1.525,0.759898679276847,0.309386256417549
1.5375,0.505744871571368,0.211633235678948
1.55,0.175326348196798,0.0798311452504291
1.5625,-0.180910612225665,-0.0662771437247676
1.575,-0.508710559326656,-0.204440663124713
1.5875,-0.758289842747385,-0.313290915352329
1.6,-0.891892710414124,-0.375648880149113
1.6125,-0.889509107547227,-0.381234757437197
1.625,-0.75186338265006,-0.3283446549519
1.6375,-0.500250468841248,-0.224247927350277
1.65,-0.173256679571278,-0.084201570267551
1.6625,0.179183660047112,0.0707918496140854
1.675,0.50340002845786,0.217132690196843
1.6875,0.750152963615118,0.332207692484167
1.7,0.882142987524495,0.397896678182648
1.7125,0.879618867540726,0.40341919172632
1.725,0.743346934325254,0.347092593452968
1.7375,0.494441360717818,0.236722424965036
1.75,0.171071047547252,0.0885156512623338
1.7625,-0.177338632938824,-0.0752630187139589
1.775,-0.497764686232561,-0.229686829437819
1.7875,-0.74154408677815,-0.350912139039502
1.8,-0.871830805215418,-0.419887874685613
1.8125,-0.869170563047204,-0.42534592137347
1.825,-0.734361593156398,-0.365619387077008
1.8375,-0.488316583438695,-0.249042049546268
1.85,-0.168793300815938,-0.0927802299127973
1.8625,0.175390559813434,0.0796884332534318
1.875,0.491815330721196,0.242093791697894
1.8875,0.732462242766334,0.36939203832143
1.9,0.86097390816767,0.441613325156357
1.9125,0.858174505744993,0.447000129347105
1.925,0.724917405636785,0.383916714453988
1.9375,0.481884672951296,0.261203856664021
1.95,0.166406398162893,0.096982097782142
1.9625,-0.173325663043882,-0.0840608886537167
1.97499999999999,-0.485559930003566,-0.254347312230443
1.98749999999999,-0.722921066203449,-0.387636144587202
1.99999999999999,-0.849576324254955,-0.463058453295954
2.01249999999999,-0.846641657972161,-0.468373967107513
2.02499999999999,-0.715020892612311,-0.401969333234777
2.03749999999999,-0.475155939709374,-0.273204366714231
2.04999999999999,-0.163909656577239,-0.101122531817534
2.06249999999999,0.171149044372656,0.0883755866345869
2.07499999999999,0.479004773336645,0.26644184882802
2.08749999999999,0.712928764496869,0.405639638115422
2.09999999999999,0.83764556564542,0.48421312586544
2.11249999999999,0.834577040683413,0.489453188093766
2.12499999999999,0.704671104397014,0.419770751433792
2.13749999999999,0.468130765962761,0.285034944101942
2.14999999999999,0.161310555610946,0.105201069403339
2.16249999999999,-0.168871182551568,-0.0926408617391829
2.17499999999999,-0.472139191128829,-0.278365822019569
2.18749999999999,-0.702492002700368,-0.423389217420303
2.19999999999999,-0.825187091253846,-0.505064052424732
2.21249999999999,-0.821990931926242,-0.510227380693818
2.22499999999999,-0.693865813333365,-0.437301016554113
2.23749999999999,-0.460809885596613,-0.296684586259676
2.24999999999999,-0.158611593163838,-0.109216098095003
2.26249999999999,0.166488482093013,0.0968484512545978
2.27499999999999,0.464977447708047,0.290116478562853
2.28749999999999,0.691606755216393,0.440869886259441
2.29999999999999,0.812205539954547,0.525594266146493
2.31249999999999,0.808879518708555,0.530675667334894
2.32499999999999,0.682635525848604,0.454563011915862
2.33749999999999,0.453176534370425,0.308135802061685
2.34999999999999,0.155817707968288,0.11315823011183
2.36249999999999,-0.163996070713726,-0.100991970966344
2.37499999999999,-0.457525058804211,-0.301684468619914
2.38749999999999,-0.680279889776387,-0.458066753739159
2.39999999999999,-0.798708268553463,-0.545789518718092
2.41249999999999,-0.795253126132283,-0.550783366685279
2.42499999999999,-0.670971247962928,-0.471530961832394
2.43749999999999,-0.445263869339015,-0.319393846448921
2.44999999999999,-0.152915367571574,-0.117026520715892
2.46249999999999,0.161392440377654,0.105067602364189
2.47499999999999,0.449780576037001,0.313057963580382
2.48749999999999,0.668525134998967,0.47497413023046
2.49999999999999,0.784705460511616,0.565635000172621
2.51249999999999,0.781126537735887,0.570540663766691
2.52499999999999,0.658881979894715,0.488198576670397
2.53749999999999,0.437088455740176,0.330458154586724
2.54999999999999,0.149898051860927,0.120805734654197
2.56249999999999,-0.158681461472467,-0.109072633983603
2.57499999999999,-0.441751566763587,-0.32422858199508
2.58749999999999,-0.656351675405089,-0.491580024383196
2.59999999999999,-0.77021032250938,-0.585121889981095
2.61249999999999,-0.766512224176893,-0.589936686804391
2.62499999999999,-0.646379253096096,-0.504555612592172
2.63749999999999,-0.428633257658884,-0.341311182576449
2.64999999999999,-0.146821805487369,-0.124535027838774
2.66249999999999,0.155904765153525,0.113029257827316
2.67499999999999,0.43343862094932,0.335193721349598
2.68749999999999,0.643766747676462,0.507873801569221
2.69999999999999,0.755236407523842,0.604241729777619
2.71249999999999,0.751419098283684,0.608963552084783
2.72499999999999,0.633472296098734,0.520598544707278
2.73749999999999,0.419904851706452,0.351945618817653
2.74999999999999,0.143646381832419,0.128178845880538
2.76249999999999,-0.153015256029308,-0.116903064014132
2.77499999999999,-0.42486632475295,-0.345953351644807
2.78749999999999,-0.630774159413307,-0.523847560042819
2.79999999999999,-0.739786888610614,-0.622982586501799
2.81249999999999,-0.735851227097463,-0.62760652705289
2.82499999999999,-0.620168943293538,-0.536315743638744
2.83749999999999,-0.410908635008801,-0.362358433996962
2.84999999999999,-0.140374538532879,-0.131740095220521
2.86249999999999,0.150014720683519,0.120694850776378
2.87499999999999,0.416039123674717,0.356507828981464
2.88749999999999,0.617380519540297,0.539488970285098
2.89999999999999,0.723868980883038,0.64132915062244
2.91249999999999,0.719816642946809,0.645852900510702
2.92499999999999,0.606470019034446,0.551690517143125
2.93749999999999,0.401655913974037,0.372543127263426
2.94999999999999,0.137009538219156,0.135213162993217
2.96249999999999,-0.146927384138981,-0.124414791591242
2.97499999999999,-0.406923707961915,-0.366815757912978
2.98749999999999,-0.603611836805565,-0.554802021301168
2.99999999999999,-0.707489186117471,-0.659267137860426
3.01249999999999,-0.703325993724109,-0.663688295696545
3.02499999999999,-0.592383576833527,-0.566711389571084
3.03749999999999,-0.392148455176158,-0.382492258203174
3.04999999999999,-0.133557850318592,-0.138601295691551
3.06249999999999,0.143746875867468,0.128060274393134
3.07499999999999,0.397553896293512,0.376895412793077
3.08749999999999,0.589451694306471,0.569752047610482
3.09999999999999,0.690663410394642,0.676785505162509
3.11249999999999,0.686389774032442,0.681100159252399
3.12499999999999,0.577924210233658,0.581373532265023
3.13749999999999,0.382392154952768,0.392193203038335
3.14999999999999,0.130031136865075,0.141907926063639
3.16249999999999,-0.140480988736312,-0.131625216749932
3.17499999999999,-0.387935884366928,-0.3867355132454
3.18749999999999,-0.574914849077054,-0.584337043099674
3.19999999999999,-0.673405554710597,-0.693877048320477
3.21249999999999,-0.669023026508695,-0.698079743403311
3.22499999999999,-0.563104973781042,-0.595670598248646
3.23749999999999,-0.372395153167511,-0.401647402954075
3.24999999999999,-0.126418868874996,-0.145119760336184
3.26249999999999,0.137119229300141,0.135101359517768
3.27499999999999,0.378077175333942,0.396333460611442
3.28749999999999,0.56002087644101,0.598553566287464
3.29999999999999,0.655724742021767,0.710529119359551
3.31249999999999,0.651238122213622,0.714621673029694
3.32499999999999,0.547934635987005,0.609591519152772
3.33749999999999,0.362169677997423,0.410854099148967
3.34999999999999,0.122724324742851,0.148239512415561
3.36249999999999,-0.133673841508161,-0.138490065025064
3.37499999999999,-0.367983980719592,-0.405683069992275
3.38749999999999,-0.544776209244456,-0.612397295615669
3.39999999999999,-0.637632730235618,-0.726736373947699
3.41249999999999,-0.633045412239453,-0.730716544550299
3.42499999999999,-0.532415422071334,-0.623129824597637
3.43749999999999,-0.351714590414658,-0.419802164629234
3.44999999999999,-0.11895365305026,-0.151268768735454
3.46249999999999,0.130146769174135,0.141799099121413
3.47499999999999,0.357651761837935,0.41477055658429
3.48749999999999,0.529192548902611,0.625860390353376
3.49999999999999,0.61913799858603,0.742487257326259
3.51249999999999,0.61445318515774,0.74635309543308
3.52499999999999,0.516559499040772,0.636273898011856
3.53749999999999,0.341035083175883,0.428482643927564
3.54999999999999,0.115109340760981,0.154206688543786
3.56249999999999,-0.126538139652037,-0.145017752401005
3.57499999999999,-0.34709900306448,-0.423606185167222
3.58749999999999,-0.513269325123173,-0.638924041264582
3.59999999999999,-0.60025064102021,-0.75776834795515
3.61249999999999,-0.595468926304487,-0.761514412930123
3.62499999999999,-0.500377458391564,-0.649018962255403
3.63749999999998,-0.330138496727471,-0.4368925143697
3.64999999999998,-0.11118953808522,-0.157036721050152
3.66249999999998,0.122846828344197,0.148141983768618
3.67499999999998,0.336325810030275,0.432172801855584
3.68749999999998,0.497020139827949,0.651580580265975
3.69999999999998,0.580981641985622,0.772567245619292
3.71249999999998,0.576106490666181,0.776190617632982
3.72499999999998,0.483880332206906,0.661348963345245
3.73749999999998,0.319032199992351,0.445022752094827
3.74999999999998,0.107198402924164,0.159771386629179
3.76249999999998,-0.119077217195185,-0.151173875132839
3.77499999999998,-0.325337387401986,-0.440460137301683
3.78749999999998,-0.480457408090034,-0.663826000417025
3.79999999999998,-0.561345413780363,-0.786873707754204
3.81249999999998,-0.556381911482207,-0.790375029415425
3.82499999999998,-0.467077455069975,-0.673260500584973
3.83749999999998,-0.307729803946061,-0.452874268241263
3.84999999999998,-0.103143179429757,-0.162405214123249
3.86249999999998,0.115233706989684,0.154111077903412
3.87499999999998,0.314144291430489,0.448466034013743
3.88749999999998,0.463594356996374,0.675651008717748
3.89999999999998,0.541359995141412,0.800686892667895
3.91249999999998,0.5363111091976,0.804062168648724
3.92499999999998,0.449983152790561,0.684746736526177
3.93749999999998,0.296235091102964,0.460442635956887
3.94999999999998,0.099021481944852,0.16493842238297
3.96249999999999,-0.111314250825142,-0.156943009928293
3.97499999999999,-0.302756610199249,-0.456197460890916
3.98749999999999,-0.446441930537873,-0.687050495167775
3.99999999999999,-0.521038044105484,-0.813998998467156
4.01249999999999,-0.515905674910667,-0.81724737331904
4.02499999999999,-0.432605227598714,-0.695805562674478
4.03749999999999,-0.284554375750474,-0.467721733211663
4.04999999999999,-0.0948433047828889,-0.167370960438671
4.06249999999999,0.107331769833478,0.159683838134508
4.07499999999999,0.291180816263762,0.463639362633555
4.08749999999999,0.429009300661625,0.698022431875029
4.09999999999999,0.500386696869115,0.826799997970046
4.11249999999999,0.495172982822623,0.829917858575845
4.12499999999999,0.414959630760784,0.706433655978959
4.13749999999999,0.272690038675297,0.474703478083372
4.14999999999999,0.0906008696215232,0.169697485826931
4.16249999999999,-0.103279443607896,-0.162324462028709
4.17499999999999,-0.279419695286207,-0.470791690580372
4.18749999999999,-0.411306185147625,-0.708556420646286
4.19999999999999,-0.479418198423863,-0.839079906179473
4.21249999999999,-0.47412788682218,-0.842067979599593
4.22499999999999,-0.397046019587311,-0.716607586019988
4.23749999999999,-0.260655724554308,-0.481387756737194
4.24999999999999,-0.0862991542734436,-0.171910618008937
4.26249999999999,0.0991610431670694,0.164859292611513
4.27499999999999,0.267484678740772,0.477648581011252
4.28749999999999,0.393337968979538,0.718637161023687
4.29999999999999,0.458145094884586,0.85082890671835
4.3125,0.452781586151793,0.853681807224973
4.325,0.378881529486395,0.726326835100984
4.3375,0.248455351904004,0.487765958569957
4.35,0.0819410373578637,0.174014858181877
4.3625,-0.0949778312043038,-0.167292619151178
4.375,-0.255372612515271,-0.484196735072723
4.3875,-0.375125844492082,-0.728264814633755
4.4,-0.436583217222467,-0.86203529121971
4.4125,-0.431149664448617,-0.864752251932965
4.425,-0.36047950402499,-0.73558830757888
4.4375,-0.236097730809279,-0.493828196631755
4.45,-0.0775412318278642,-0.176020797053892
4.4625,0.0907387303961161,0.169622604949549
4.475,0.243103624618859,0.49043828530201
4.4875,0.356677052908229,0.737430854015941
4.5,0.414748723671366,0.872697809953676
4.5125,0.409249501806764,0.875277222564008
4.525,0.341853209299363,0.744386112400737
4.5375,0.223596993185203,0.499589641491905
4.55,0.0730867363834672,0.177902324617968
4.5625,-0.0864386678543595,-0.17183894339395
4.575,-0.230684662598868,-0.496374141148714
4.5875,-0.338006137813334,-0.746129664757915
4.6,-0.392656972892083,-0.882812552798354
4.6125,-0.387094617281706,-0.885254529821051
4.625,-0.323015227472539,-0.752715666308349
4.6375,-0.210956618419567,-0.505038805474088
4.65,-0.0685871257058688,-0.179677238265345
4.66250000000001,0.0820877231924702,0.173948136916375
4.67500000000001,0.218124059776539,0.501998484195734
4.68750000000001,0.319123651298361,0.754365076171938
4.70000000000001,0.370318155043769,0.892374543634608
4.71250000000001,0.364696833570208,0.894677557679764
4.72500000000001,0.303971215921785,0.760574603328594
4.73750000000001,0.198181659454901,0.510167385169857
4.75000000000001,0.0640434847010298,0.181343580149449
4.76250000000001,-0.0776873734463531,-0.175957578889572
4.77500000000001,-0.205418891202635,-0.507299990883848
4.78750000000001,-0.300041461556929,-0.762129142467625
4.80000000000001,-0.347745467873612,-0.901376415137207
4.81250000000001,-0.34206739706059,-0.903538383734777
4.82500000000001,-0.284735688858262,-0.767954749406021
4.83750000000001,-0.185279689427134,-0.514972437611448
4.85000000000001,-0.0594592447036933,-0.182892897197325
4.86250000000001,0.0732336660024147,0.177846427888388
4.87500000000001,0.192589370638482,0.512295745412282
4.88750000000001,0.28076687369623,0.769408350197918
4.90000000000001,0.324952110091909,0.909807945521888
4.91250000000001,0.319220887225519,0.911826000025917
4.92500000000001,0.265315831829295,0.774844506406278
4.93750000000001,0.172261477600528,0.519452395346314
4.95000000000001,0.054840195977064,0.184322008596073
4.96250000000001,-0.0687342707300489,-0.179623650696108
4.97500000000001,-0.179636214661469,-0.516961881444327
4.98750000000001,-0.261315130492494,-0.776198972125366
5.00000000000001,-0.301952777128986,-0.917660407179536
5.01250000000002,-0.296172007919708,-0.91953220521185
