"Time [ms]","InducedVoltage(Cos_Winding) [mV]","InducedVoltage(Sin_Winding) [mV]"
0,-557.757616855157,-962.94459424811
0.0125,-479.842826705609,-838.125031030672
0.025,-401.92803655606,-713.305467813233
0.0375,-263.950167394465,-479.216846653668
0.05,-87.4960434478035,-171.196080482705
0.0625,100.260428045271,164.038508937289
0.075,270.726800269809,475.420803725195
0.0875,398.25007052559,715.36662459797
0.1,463.979775805752,847.017489717645
0.1125,458.654657787496,849.915086970917
0.125,383.894266270457,723.174150535834
0.1375,251.84139353588,485.702017053513
0.15,83.1704894223698,173.336876445951
0.1625,-96.1141654095078,-166.50258484323
0.175,-258.707685952675,-482.072780013563
0.1875,-380.167541968083,-725.145547366161
0.2,-442.571414228788,-858.407219782338
0.2125,-437.174541151962,-861.169898675042
0.225,-365.620220727455,-732.594372371553
0.2375,-239.566270823079,-491.873280951774
0.25,-78.7923320352058,-175.372281675209
0.2625,91.9033089794533,168.866968210122
0.275,246.525421700426,488.419962527831
0.2875,361.844200200801,734.470139663831
0.3,420.880434348911,869.252764296521
0.3125,415.414893248681,871.879767367339
0.325,347.111794114428,741.546397005784
0.3375,227.139783602701,497.732328490477
0.35,74.3628200691301,177.295084281354
0.3625,-87.6383794797152,-171.12544036501
0.375,-234.184985845866,-494.456145129999
0.3875,-343.285481865855,-743.323930253445
0.4,-398.920444334721,-879.548062420402
0.4125,-393.390580490548,-882.034073548582
0.425,-328.380370309001,-750.024436034593
0.4375,-214.568491107096,-503.277064686178
0.45,-69.8833176918696,-179.097667969665
0.4625,83.3091251270636,173.2656871456
0.475,221.694254483945,500.181862870115
0.4875,324.512731439191,751.704398321201
0.5,376.706648987544,889.281294949108
0.5125,371.116512970554,891.62714584298
0.525,309.441225158503,758.024809102236
0.5375,201.863991703846,508.503134577521
0.55,65.3663252654628,180.799718648999
0.5625,-78.9341631570728,-175.306640634919
0.575,-209.063015365103,-505.585951206452
0.5875,-305.532990953636,-759.610158805544
0.6,-354.257886062507,-898.452058571733
0.6125,-348.610208838403,-900.655171083463
0.625,-290.3098895171,-765.553786174109
0.6375,-189.031228696942,-513.403773882058
0.65,-60.8083019708878,-182.383957361197
0.6625,74.506813658565,177.232961207196
0.675,196.301926435079,510.670199540883
0.6875,286.364257378721,767.03623659712
0.7,331.586631938824,907.057292222741
0.7125,325.885806909608,909.120782759473
0.725,270.997344284935,772.59650161681
0.7375,176.08109919286,517.98853990477
0.75,56.2084608660177,183.851765516213
0.7625,-70.0338432394433,-179.043675356117
0.775,-183.41999781095,-515.441177743634
0.7875,-267.012290632523,-773.977605161264
0.8,-308.7065799591,-915.095132601688
0.812500000000001,-302.954466146083,-917.014383117764
0.825000000000001,-251.511144092834,-779.155724272993
0.837500000000001,-163.01774799165,-522.245977255385
0.850000000000001,-51.5726051726768,-185.201684217094
0.862500000000001,65.5152815170129,180.7431556322
0.875000000000001,170.418208094169,519.877850210008
0.887500000000001,247.493775404046,780.44077571647
0.900000000000001,285.628698720986,922.55598838858
0.912500000000001,279.830589984598,924.330085940024
0.925000000000001,231.863880338714,785.222617310466
0.937500000000001,149.849788728822,526.166818685905
0.950000000000001,46.9038258816397,186.445751735072
0.962500000000001,-60.9570085086392,-182.336200938471
0.975000000000001,-157.307266410877,-523.991743167107
0.987500000000001,-227.815273606252,-786.406280209596
1,-262.36853673945,-929.431050442469
1.0125,-256.52618517535,-931.057422247097
1.025,-212.067594239899,-790.790157548158
1.0375,-136.587432760851,-529.762347924758
1.05,-42.206831900395,-187.555318482224
1.0625,56.3585723549176,183.807912113421
1.075,144.097329663145,527.773638293795
1.0875,207.99154737371,791.868879179451
1.1,238.940594961107,935.714817716607
1.1125,233.0598275948,937.192823320065
1.125,192.13918084215,795.852976149613
1.1375,123.236523544308,533.01523694626
1.15,37.4826422882353,188.552628191728
1.1625,-51.7238760748336,-185.162106089337
1.175,-130.795565083329,-531.218826581743
1.1875,-188.035407202845,-796.828420453224
1.2,-215.363326185668,-941.404312583322
1.2125,-209.44734088524,-942.734289782055
1.225,-172.090290138972,-800.414955208571
1.2375,-109.812408968852,-535.933220812914
1.25,-32.7359220618534,-189.43088969
1.2625,47.0565743429025,186.403432256959
1.275,117.413026806739,534.320494288214
1.2875,167.964001870199,801.288765961928
1.3,191.652359257221,946.500664099651
1.3125,185.706052322342,947.682131301631
1.325,151.935182566283,804.472432232158
1.3375,96.3178397595013,538.516103317233
1.35,27.967761546351,190.19221532951
1.3625,-42.3588065848355,-187.517389391416
1.375,-103.956179322501,-537.096416282123
1.3875,-147.788898960797,-805.243730174461
1.4,-167.822951549202,-951.00534744905
1.4125,-161.847956697817,-952.038384242974
1.425,-131.682142302543,-808.022035398484
1.4375,-82.7649972017897,-540.764404595321
1.45,-23.1830374563502,-190.833865703265
1.4625,37.6383104779981,188.522790988151
1.475,90.4354060735836,539.530475549848
1.4875,127.51899121458,808.692923462906
1.5,143.885426059018,954.912501065651
1.5125,137.886030211719,955.794272106718
1.525,111.347149646018,811.073257289902
1.5375,69.1551628593862,542.663921592331
1.55,18.382181872938,191.354845517141
1.5625,-32.8913110703453,-189.406526035419
1.575,-76.8558830132735,-541.631958983769
1.5875,-107.167500541747,-811.633780506262
1.6,-119.855830130319,-958.21403210553
1.6125,-113.83520535764,-958.94612651811
1.625,-90.9402481296536,-813.605032809809
1.6375,-55.5033659528056,-544.221526261433
1.65,-13.5696171773539,-191.751376603712
1.6625,28.1256652939198,190.171227902514
1.675,63.2280680794192,543.3858020651
1.6875,86.7456499435979,814.05808928515
1.7,95.7490534103127,960.908944071371
1.7125,89.7129460750677,961.488020950076
1.725,70.4759031538362,815.617196386169
1.7375,41.8151478363391,545.436114406272
1.75,8.74737131407111,192.020315812786
1.7625,-23.3363322949859,-190.811515474224
1.775,-49.5586251181398,-544.791671043981
1.7875,-66.2724707841384,-815.967955575883
1.8,-71.5839402926097,-962.990506592764
1.8125,-65.5355521790418,-963.419511309565
1.825,-49.9689773561552,-817.113652124356
1.8375,-28.1046561979804,-546.30222710186
1.85,-3.92364102382095,-192.182822469591
1.8625,18.537430020263,191.339079404605
1.875,35.859866173971,545.852726142375
1.8875,45.758633734569,817.358054557275
1.9,47.3768968813461,964.468354037479
1.9125,41.3210221953739,964.742292126488
1.925,29.4325622950858,818.098683937238
1.9375,14.377587822676,546.824350364717
1.95,-0.901794116239181,192.220312750093
1.9625,-13.7253641372077,-191.740361798898
1.97499999999999,-22.1407326130559,-546.572198790009
1.98749999999999,-25.2199928528189,-818.233697177276
1.99999999999999,-23.1432886445973,-965.339382548611
2.01249999999999,-17.0819879134204,-965.46201761636
2.02499999999999,-8.88100090863751,-818.570404937787
2.03749999999999,-0.642040900566186,-547.008201253027
2.04999999999999,5.72820115885104,-192.13364332428
2.06249999999999,8.90837419859077,192.017231434187
2.07499999999999,8.40977515249399,546.953914428539
2.08749999999999,4.66352497004502,818.597757161728
2.09999999999999,-1.10484576418879,965.605365244964
2.11249999999999,-7.16741581657201,965.574705630026
2.12499999999999,-11.6784116135352,818.526776783613
2.13749999999999,-13.0960643074856,546.851028406406
2.14999999999999,-10.5515371733493,191.92617877198
2.16249999999999,-4.08238728488614,-192.180190482821
2.17499999999999,5.32757157742643,-546.98128346921
2.18749999999999,15.8944042313053,-818.453189385833
2.19999999999999,25.3538403925857,-965.264027391332
2.21249999999999,31.4141180084525,-965.083481945231
2.22499999999999,32.2282063647314,-817.95679081374
2.23749999999999,26.8253745175739,-546.34719368575
2.24999999999999,15.3703882342433,-191.602259748337
2.26249999999999,-0.745409598752069,192.223908957142
2.27499999999999,-19.063003100151,546.668606482704
2.28749999999999,-36.4434739042589,817.786485033161
2.29999999999999,-49.5862005843639,964.310726855502
2.31249999999999,-55.6402253366564,963.976890974415
2.32499999999999,-52.7613955639308,816.882000215854
2.33749999999999,-40.5345793042152,545.482245548724
2.34999999999999,-20.1757437330205,191.15494345007
2.36249999999999,5.57338726607684,-192.142138137115
2.37499999999999,32.7857629438187,-546.011754774752
2.38749999999999,56.9666675782643,-816.597625093056
2.39999999999999,73.7861262122296,-962.744563319348
2.41249999999999,79.8281003850239,-962.256305394531
2.42499999999999,73.2558745184812,-815.285701302337
2.43749999999999,54.2174573885314,-544.275565733047
2.44999999999999,24.9690757140119,-190.582209879179
2.46249999999999,-10.395588276607,191.932599618732
2.47499999999999,-46.4868619082233,545.006066556454
2.48749999999999,-77.4533784306988,814.893521602709
2.49999999999999,-97.9346795098028,960.567595659907
2.51249999999999,-103.962418468146,959.928411748808
2.52499999999999,-93.7009053705593,813.173290706832
2.53749999999999,-67.8665698800486,542.739603066905
2.54999999999999,-29.7381260805619,189.87390386177
2.56249999999999,15.2086518909773,-191.598005140666
2.57499999999999,60.1532072006843,-543.653406996098
2.58749999999999,97.887738757841,-812.677258005498
2.59999999999999,122.018422069754,-957.786540371214
2.61249999999999,128.027327180938,-956.99844092724
2.62499999999999,114.083725805167,-810.549233267678
2.63749999999999,81.4703627393092,-540.859207534908
2.64999999999999,34.5008574040419,-189.075668483403
2.66249999999999,-20.0200670277764,191.166584296272
2.67499999999999,-73.7813042364335,541.95791424707
2.68749999999999,-118.257535654264,809.950024420813
2.69999999999999,-146.023366388434,954.408028372136
2.71249999999999,-152.011572604435,953.470298256375
2.72499999999999,-134.396974029653,807.417824428517
2.73749999999999,-95.0208592681115,538.636630976792
2.74999999999999,-39.2371515825071,188.151706988317
2.76249999999999,24.8127563704598,-190.605778693851
2.77499999999999,87.363008766207,-539.929094846124
2.78749999999999,138.552687197439,-806.712307594048
2.79999999999999,169.938105327253,-950.429280638825
2.81249999999999,175.90032737993,-949.341009332769
2.82499999999999,154.62633459827,-803.782006456552
2.83749999999999,108.513512300018,-536.070637210631
2.84999999999999,43.9482963317892,-187.105822529318
2.86249999999999,-29.5861686834708,189.913851156324
2.87499999999999,-100.897217495023,537.572494643562
2.88749999999999,-158.759849429952,802.963810780394
2.89999999999999,-193.745235232343,945.849320058798
2.91249999999999,-199.678818507973,944.610761719172
2.92499999999999,-174.756330029714,799.633477174265
2.93749999999999,-121.937343701257,533.168042329822
2.94999999999999,-48.6299846798097,185.936206324925
2.96249999999999,34.3436316303412,-189.106699062381
2.97499999999999,114.356061809095,-534.85457691454
2.98749999999999,178.873078727447,-798.718985974916
2.99999999999999,217.4297049823,-940.668226704774
3.01249999999999,223.329315438129,-939.280771057548
3.02499999999999,194.773132640483,-794.974564993073
3.03749999999999,135.284592830439,-529.927690433947
3.04999999999999,53.2816436346688,-184.647311585467
3.06249999999999,-39.0828850191678,188.179674923614
3.07499999999999,-127.746959449891,531.800052919471
3.08749999999999,-198.865815478609,793.960080215602
3.09999999999999,-240.973024883244,934.890531108983
3.11249999999999,-246.835520988777,933.354637190389
3.12499999999999,-214.665082703708,789.813637585996
3.13749999999999,-148.540498289991,526.349527641919
3.14999999999999,-57.9013191691729,183.253885570436
3.16249999999999,43.7960062743115,-187.140022091095
3.17499999999999,141.054840980988,-528.411042246268
3.18749999999999,218.729422797378,-788.695323893587
3.19999999999999,264.362151386394,-928.525300856292
3.21249999999999,270.18207630365,-926.840669262202
3.22499999999999,234.421298969826,-784.159004819578
3.23749999999999,161.702481091995,-522.441070486237
3.24999999999999,62.4802367149192,-181.738638709954
3.26249999999999,-48.4786393078991,185.974484949156
3.27499999999999,-154.272763765506,524.692013951194
3.28749999999999,-238.453012247831,782.93654633149
3.29999999999999,-287.581678100783,921.576339127632
3.31249999999999,-293.358505331435,919.747229613189
3.32499999999999,-254.027059203712,778.012685797961
3.33749999999999,-174.764874045335,518.210292144791
3.34999999999999,-67.0206286381035,180.107667656422
3.36249999999999,53.127808397197,-184.693305682035
3.37499999999999,167.392547143282,-520.64670421267
3.38749999999999,258.02900366416,-776.6878413556
3.39999999999999,310.621708356609,-914.050025042756
3.41249999999999,316.35163417142,-912.077178691832
3.42499999999999,273.475621618519,-771.375198230991
3.43749999999999,187.71786822646,-513.651429505955
3.44999999999999,71.5212032943132,-178.365781104209
3.46249999999999,-57.7486678018569,183.300263059302
3.47499999999999,-180.405164306654,516.265765823245
3.48749999999999,-277.444650950053,769.95565058464
3.49999999999999,-333.467844648203,905.947909128373
3.51249999999999,-339.147637036014,903.832995809291
3.52499999999999,-292.751155206075,764.250277145963
3.53749999999999,-200.551302873198,508.765271294669
3.54999999999999,-75.9793327454379,176.513005009307
3.56249999999999,62.3320857896472,-181.790981506967
3.57499999999999,193.309661925113,-511.566891562198
3.58749999999999,296.684268887568,-762.732035797999
3.59999999999999,356.10341165129,-897.271641454362
3.61249999999999,361.728055526693,-895.013599044328
3.62499999999999,311.844488611394,-756.642381106595
3.63749999999998,213.258664356948,-503.557583883686
3.64999999999998,80.3817308418562,-174.541732358345
3.66249999999998,-66.8748702506191,180.164414167245
3.67499999999998,-206.091642004769,506.542533539057
3.68749999999998,-315.734193439143,755.023343739619
3.69999999999998,-378.512234086627,888.025005987939
3.71249999999998,-384.077245965894,885.625154252107
3.72499999999998,-330.735185294846,748.555546042014
3.73749999999998,-225.829126383275,498.028086070611
3.74999999999998,-84.7369782656921,172.461484277677
3.76249999999998,71.3771599206793,-178.423524423234
3.77499999999998,218.738642577001,-501.193275274542
3.78749999999998,334.584773696462,-746.837866413707
3.79999999999998,400.677960161856,-878.215605573231
3.81249999999998,406.181090981021,-875.678068210683
3.82499999999998,349.4166013627,-739.996172855539
3.83749999999998,238.255661484087,-492.189333464541
3.84999999999998,89.0368111736313,-170.275009003589
3.86249999999998,-75.8339275894037,176.570998242357
3.87499999999998,-231.244752298728,495.527668527859
3.88749999999998,-353.221006468577,738.182744293262
3.89999999999998,-422.590479144972,867.857173489338
3.91249999999998,-428.027295366177,865.182992254503
3.92499999999998,-367.874851432839,730.972223119657
3.93749999999998,-250.533566640781,486.043899553994
3.94999999999998,-93.2832314106777,167.981496908098
3.96249999999999,80.2382596352779,-174.602521139314
3.97499999999999,243.609856167873,-489.555697063306
3.98749999999999,371.633340807142,-729.065044636056
3.99999999999999,444.237488740477,-856.957350016084
4.01249999999999,449.606243671406,-854.147839667788
4.02499999999999,386.104909038017,-721.489511418686
4.03749999999999,262.653535492149,-479.59292186769
4.04999999999999,97.4706838820492,-165.587890211096
4.06249999999999,-84.5944911551803,172.53236086207
4.07499999999999,-255.818587109294,483.276427561955
4.08749999999999,-389.815498757589,719.491428001815
4.09999999999999,-465.606795612014,845.517947732299
4.11249999999999,-470.902939409906,842.573060946028
4.12499999999999,-404.096126860476,711.55973368634
4.13749999999999,-274.608288506052,472.835364581929
4.14999999999999,-101.597899324307,163.0857931392
4.16249999999999,88.8988724944286,-170.351868081898
4.17499999999999,267.869301431875,-476.692625855207
4.18749999999999,407.753856876539,-709.46535547762
4.19999999999999,486.683223848268,-833.544103930911
4.21249999999999,491.905588988998,-830.468211161163
4.22499999999999,421.827935608793,-701.172265319436
4.23749999999999,286.390273241666,-465.781317501368
4.24999999999999,105.657229976702,-160.477011740396
4.26249999999999,-93.1451083966283,168.062357013563
4.27499999999999,-279.750921410809,469.810471779294
4.28749999999999,-425.432443545506,698.983765749385
4.29999999999999,-507.45255506147,821.042212143917
4.3125,-512.594441689776,817.835032548604
4.325,-439.291538863402,690.340795282953
4.3375,-297.990445624559,458.430980937829
4.35,-109.650434272616,157.764448118818
4.3625,97.3359735684316,-165.664936991502
4.375,291.45416157582,-462.62193839166
4.3875,442.840367767024,-688.06521741907
4.4,527.896358138459,-808.019165050624
4.4125,532.95548819209,-804.68367553183
4.425,456.477339271248,-679.074658146643
4.4375,309.395257431668,-450.787745735577
4.45,113.578697613363,-154.965839803643
4.4625,-101.46481319612,163.167489519325
4.475,-302.970012124785,455.144527166871
4.4875,-459.966790436543,676.71127266189
4.5,-548.005167399153,794.488630801663
4.5125,-552.978023994663,791.027833115029
4.525,-473.373477786818,667.383041929832
4.5375,-320.610922926284,442.869506166442
4.55,-117.427155489823,152.059029144198
4.5625,105.525678653264,-160.561503638344
4.575,314.295913043092,-447.383742109922
4.5875,476.799752385915,-664.932157213878
4.6,567.768236764439,-780.462008324383
4.6125,572.653762023263,-776.878431088768
4.625,489.969794598715,-655.273933357955
4.6375,331.626263589727,-434.674299324117
4.65,121.205797037066,-149.059940344544
4.66250000000001,-109.519427365692,157.857973626558
4.67500000000001,-325.423081190077,439.345387171828
4.68750000000001,-493.336898893947,652.737592634171
4.70000000000001,-587.17621049539,765.945651582059
4.71250000000001,-591.97080978352,762.241200634661
4.72500000000001,-506.262466367934,642.753287128323
4.73750000000001,-342.430942119202,426.201826279605
4.75000000000001,-124.912138609379,145.967680619761
4.76250000000001,113.45143849279,-155.060532781189
4.77500000000001,336.342420969382,-431.020979078555
4.78750000000001,509.566205292718,-640.135350791836
4.80000000000001,606.216292821813,-750.947132910485
4.81250000000001,610.917138802318,-747.123024192483
4.82500000000001,522.236187380187,-629.82707962298
4.83750000000001,353.019316504967,-417.459159616106
4.85000000000001,128.537799965462,-142.78181845237
4.86250000000001,-117.304992679796,152.157038110703
4.87500000000001,-347.060377492857,422.436322374684
4.88750000000001,-525.472060836981,627.125053557435
4.90000000000001,-624.873012381572,735.472668705241
4.91250000000001,-629.476069590791,731.530836174996
4.92500000000001,-537.877418150815,616.495642911009
4.93750000000001,-363.386989851161,408.457536120912
4.95000000000001,-132.074537171154,139.503244616619
4.96250000000001,121.085578970942,-149.159782417078
4.97500000000001,357.55423255327,-413.579339590036
4.98750000000001,541.043615185793,-613.717225459288
5.00000000000001,643.131588791767,-719.530913222527
5.01250000000002,647.632917494626,-715.473341591517
5.02500000000002,553.176586321814,-602.781789440575
5.03750000000002,373.517497647262,-399.188364341573
5.05000000000002,135.534325357374,-136.139308705053
5.06250000000002,-124.79285797533,146.069517648644
5.07500000000002,-367.815933330024,404.457797086
5.08750000000002,-556.273664758309,599.922562707325
5.10000000000002,-660.978871537821,703.132927462964
5.11250000000002,-665.377983694616,698.965854604685
5.12500000000002,-568.125506461471,588.685572807805
5.13750000000002,-383.413806460417,389.672399225975
5.15000000000002,-138.906453542173,132.690987226526
5.16250000000002,128.418719756566,-142.885437615166
5.17500000000002,377.846316024722,-395.08388362759
5.18750000000002,571.14692332165,-585.748023710012
5.20000000000002,678.411791835859,-686.297469738175
5.21250000000002,682.7033177634,-682.021162889894
5.22500000000002,582.713350405562,-574.219965067453
5.23750000000002,393.072492783813,-379.915472143405
