"Time [ms]","InducedVoltage(Cos_Winding) [V]","InducedVoltage(Sin_Winding) [V]"
0,-0.00167026629396725,-1.11521953934053
0.0125,0.00341728838129741,-0.967848323146262
0.025,0.00850484305656207,-0.820477106951992
0.0375,0.0109825316399082,-0.548173386025051
0.05,0.0098188459260051,-0.192425825989907
0.0625,0.00483400013576637,0.192607094179153
0.075,-0.00320529105217745,0.548273771580762
0.0875,-0.0127263249539035,0.820423451475572
0.1,-0.0216258931615328,0.967620326015608
0.1125,-0.0276945647233885,0.967467769277497
0.125,-0.029084679837952,0.820007861017924
0.1375,-0.0247300347650515,0.547737415404805
0.15,-0.0146415539316143,0.192115707942188
0.1625,-4.69209016751605e-06,-0.192668073113078
0.175,0.0169587633796726,-0.548026957961024
0.1875,0.0333032697915107,-0.819852382715947
0.2,0.0458934922047432,-0.966781340991765
0.2125,0.0519568108838008,-0.966475459986697
0.225,0.0496478608534361,-0.819029593152884
0.2375,0.0384646673192559,-0.546943324677321
0.25,0.0194573127360219,-0.191688985360389
0.2625,-0.0048309495741062,0.192611602207646
0.275,-0.0307006858109942,0.547432034089121
0.2875,-0.053861486297208,0.818766374984936
0.3,-0.0701335301959815,0.965327353030821
0.3125,-0.0761882769430667,0.964868939381675
0.325,-0.0701799715385913,0.817526812004914
0.3375,-0.0521739282235352,0.545801814283457
0.35,-0.0242611383100401,0.191138756196956
0.3625,0.009660200544704,-0.192435128906347
0.375,0.0444241603387435,-0.546488538040621
0.3875,0.0743879259659937,-0.817152490471475
0.4,0.0943310282518251,-0.963260165584237
0.4125,0.10037100495259,-0.962647015849373
0.425,0.090667893310015,-0.81549907712699
0.4375,0.065851316117074,-0.544316062560966
0.45,0.0290479437860713,-0.19045701619283
0.4625,-0.0144854005649278,0.19212291675151
0.475,-0.0581225279132209,0.545200155776079
0.4875,-0.0948629869989099,0.815019001113214
0.5,-0.118467242831418,0.960577099219579
0.5125,-0.124489381114621,0.959811824771112
0.525,-0.111096921679126,0.812952133533785
0.5375,-0.0794851415928655,0.542485472209064
0.55,-0.0338174594780048,0.189671242915984
0.5625,0.0193013992211994,-0.191703036911189
0.575,0.0717816955249852,-0.543560667017836
0.5875,0.11527994987165,-0.812369994954739
0.6,0.142525859390245,-0.957286975676603
0.6125,0.148526436036691,-0.956368665343079
0.625,0.131456939483573,-0.809900108883672
0.6375,0.0930669317501581,-0.540306962806546
0.65,0.0385632018279523,-0.188762605064562
0.6625,-0.0241051791491076,0.191156870698897
0.675,-0.0853933323800399,0.541578199117583
0.6875,-0.1356207003326,0.809209167672206
0.7,-0.166494297437258,0.953394105731091
0.7125,-0.172471041569811,0.952328194729263
0.725,-0.15173035732237,0.806333666096199
0.7375,-0.106592475674328,0.537796558607166
0.75,-0.0432868390713121,0.187730587640249
0.7625,0.0288905458742704,-0.190486095471798
0.775,0.0989529634298012,-0.539264593957873
0.7875,0.155877574064775,-0.805534435969555
0.8,0.190359630469606,-0.948903882794892
0.812500000000001,0.196308511746543,-0.947686840278755
0.825000000000001,0.171912083983775,-0.802260451538363
0.837500000000001,0.120052207529763,-0.53494467582365
0.850000000000001,0.0479830159886992,-0.186578347223634
0.862500000000001,-0.0336600016952109,0.189696615928262
0.875000000000001,-0.112449225490781,0.536598398903888
0.887500000000001,-0.176039264389484,0.801362479323096
0.900000000000001,-0.214107327927602,0.94381282181842
0.912500000000001,-0.220023359054699,0.942446522561259
0.925000000000001,-0.191987022181054,0.79767926510423
0.937500000000001,-0.13343395148396,0.531746796309189
0.950000000000001,-0.0526540769376642,0.185318813320437
0.962500000000001,0.0384104757755324,-0.188795929006873
0.975000000000001,0.125877977083953,-0.533597000622084
0.987500000000001,0.196090373269126,-0.796677254167225
1,0.237719583782885,-0.938121214608654
1.0125,0.243600025492183,-0.936604588811198
1.025,0.211940817143936,-0.79258863210779
1.0375,0.146734441254047,-0.528219903997709
1.05,0.0572826660646084,-0.183926515230891
1.0625,-0.043134714907583,0.187767758595011
1.075,-0.139226557472642,0.53025881502942
1.0875,-0.216015474671324,0.791481175656375
1.1,-0.26118120321461,0.931831891962828
1.1125,-0.267020782589072,0.930166775115623
1.125,-0.231756597509334,0.786992718589751
1.1375,-0.15994028823699,0.524351181386449
1.15,-0.0618786828421664,0.182423561325736
1.1625,0.047831604908369,-0.186620003503557
1.175,0.152486144776719,-0.526581272548509
1.1875,0.235803557689802,-0.785782125268844
1.2,0.284475044113193,-0.924950836191928
1.2125,0.290271103927991,-0.923139371014012
1.225,0.251426362754993,-0.780901933469263
1.2375,0.173042176866727,-0.52015369954273
1.25,0.066434601360714,-0.180806871634665
1.2625,-0.0525005440652291,0.185359198171908
1.275,-0.165643587416818,0.522563369863209
1.2875,-0.255442106179218,0.779591922764687
1.3,-0.307588007613091,0.917487385938535
1.3125,-0.313335959610454,0.915531827909731
1.325,-0.270935663614657,0.774319415136183
1.3375,-0.186037381017563,0.515630598939994
1.35,-0.070950968454923,0.179077000726268
1.3625,0.0571319023035726,-0.183969937051911
1.375,0.178703324787282,-0.518227718285427
1.3875,0.274917390704863,-0.772910102773651
1.4,0.330507355267443,-0.909451085678776
1.4125,0.336205887766852,-0.90735235721833
1.425,0.290275069191931,-0.767246026260311
1.4375,0.198916156067447,-0.510788401726714
1.45,0.0754210803688264,-0.177234637293596
1.4625,-0.0617284119764674,0.182476075123262
1.475,-0.191646866397787,0.513561997320786
1.4875,-0.294221757152484,0.765741815966815
1.5,-0.353221158288154,0.900841535146683
1.5125,-0.358865018390459,0.898599118641835
1.525,-0.309436830764877,0.759700141498482
1.5375,-0.21166830867011,0.505612622020835
1.55,-0.0798449016242241,0.17528037539047
1.5625,0.0662873607022861,-0.180863485885819
1.575,0.204473864464572,-0.508577706657487
1.5875,0.313342502710637,-0.758091634671038
1.6,0.375711331990279,-0.891659431397515
1.6125,0.381298665654739,-0.889276317962123
1.625,0.328400177932909,-0.751666486574546
1.6375,0.224286292294653,-0.500119341343504
1.65,0.0842164643810549,-0.1732111200986
1.6625,-0.0708032433461192,0.179136902355121
1.675,-0.217169205118068,0.503268262875702
1.6875,-0.332264221057774,0.749956411056231
1.7,-0.397964931210132,0.881911690729509
1.7125,-0.403488889171183,0.879388082326538
1.725,-0.347153009033408,0.74315175826851
1.7375,-0.236764047571402,0.494311398369298
1.75,-0.0885316781668732,0.171025926563414
1.7625,0.0752755900030278,-0.177292251986394
1.775,0.229726613101511,-0.497634056708313
1.7875,0.350973556888072,-0.741349275364288
1.8,0.419961864419221,-0.871601582505277
1.8125,0.425421343355542,-0.868941881823758
1.825,0.365684639352757,-0.734168225745397
1.8375,0.249086887232784,-0.488187856266487
1.85,0.0927973642786181,-0.168748641040124
1.8625,-0.0797021533095484,0.175344565877157
1.875,-0.242136814860468,0.49168589918179
1.8875,-0.369458274626727,0.732269259569739
1.9,-0.44169299194306,0.860746881258531
1.9125,-0.447081208141,0.857948054264732
1.925,-0.383986736784827,0.724725953203129
1.9375,-0.261251867461428,0.481757260106625
1.95,-0.0970003307148688,0.166362229832521
1.9625,0.0840757503881774,-0.173280077763279
1.97499999999999,0.254393536251975,-0.485431764969317
1.98749999999999,0.387707140235789,-0.722730027133348
1.99999999999999,0.463143716747549,-0.849351628551609
2.01249999999999,0.468460613102868,-0.846417568786412
2.02499999999999,0.402044071971409,-0.71483149003759
2.03749999999999,0.273255503029281,-0.475029922545847
2.04999999999999,0.1011418432844,-0.163866016278522
2.06249999999999,-0.0883915727119516,0.171103902614394
2.07499999999999,-0.266491233940275,0.478877977191387
2.08749999999999,-0.405715322379823,0.712739772793861
2.09999999999999,-0.484303902928951,0.837423346031075
2.11249999999999,-0.489545325487188,0.834355457077913
2.12499999999999,-0.419850126544676,0.704483853500454
2.13749999999999,-0.285089166848966,0.468006214505114
2.14999999999999,-0.105221437038578,0.161267452986034
2.16249999999999,0.0926579579665153,-0.168826514249447
2.17499999999999,0.278418305073462,-0.472013801832245
2.18749999999999,0.423469533858744,-0.702305202068747
2.19999999999999,0.505160259592646,-0.824967460901884
2.21249999999999,0.510324933256539,-0.821771962377265
2.22499999999999,0.437384939383979,-0.69368078986489
2.23749999999999,0.296741854750566,-0.460686851444398
2.24999999999999,0.10923750869708,-0.158569047237893
2.26249999999999,-0.0968666462645054,0.166444313320418
2.27499999999999,-0.290172020122185,0.464853548197842
2.28749999999999,-0.440954752633243,0.691422203992339
2.29999999999999,-0.525695817687218,0.811988586365233
2.31249999999999,-0.530778541815126,0.808663244338103
2.32499999999999,-0.454651442279954,0.682452807932974
2.33749999999999,-0.308196033730851,0.453055049620822
2.34999999999999,-0.113180675407402,0.155775729934652
2.36249999999999,0.101011248935715,-0.163952419606713
2.37499999999999,0.301743021287421,-0.457402688677077
2.38749999999999,0.458156095469149,-0.680097656333575
2.39999999999999,0.545896328159582,-0.798494068160598
2.41249999999999,0.550891476560346,-0.795039629357453
2.42499999999999,0.471623814356483,-0.670790905787083
2.43749999999999,0.319457006493066,-0.445143989319491
2.44999999999999,0.117049972787111,-0.152873979148383
2.46249999999999,-0.105087938301202,0.161349315776807
2.47499999999999,-0.313119483272057,0.449659781978777
2.48749999999999,-0.475067872564265,0.668345294232481
2.49999999999999,-0.565746976726384,0.784494112545056
2.51249999999999,-0.570653918813709,0.780915920957142
2.52499999999999,-0.488295766483797,0.658704106276167
2.53749999999999,-0.330524205689707,0.436970249952261
2.54999999999999,-0.120830192040556,0.14985727911043
2.56249999999999,0.109094043034257,-0.158638885838959
2.57499999999999,0.324293008474557,-0.441632405676236
2.58749999999999,0.491678092211975,-0.656174321755253
2.59999999999999,0.585238939973819,-0.77000194394485
2.61249999999999,0.590054990588816,-0.766304607942487
2.62499999999999,0.504657058961602,-0.646203956691846
2.63749999999999,0.341380053380425,-0.428516800739295
2.64999999999999,0.124560428483843,-0.146781669986944
2.66249999999999,-0.113051669119961,0.155862754652438
2.67499999999999,-0.335261002453748,0.433321164309664
2.68749999999999,-0.507976108548503,0.643591986795298
2.69999999999999,-0.604363752004725,0.755031130486525
2.71249999999999,-0.609086800438035,0.75121461055531
2.72499999999999,-0.520704161189601,0.633299690733546
2.73749999999999,-0.352017253659284,0.419790216751793
2.74999999999999,-0.128205191951616,0.143606910503076
2.76249999999999,0.116926483623159,-0.152973844574608
2.77499999999999,0.346023430201923,-0.424750652401313
2.78749999999999,0.523954018610732,-0.630602103719674
2.79999999999999,0.623109475516451,-0.739584828734271
2.81249999999999,0.627734617552169,-0.735649989374462
2.82499999999999,0.536425439662018,-0.619999099713591
2.83749999999999,0.362432769685922,-0.410795877722683
2.84999999999999,0.131767365713338,-0.140335755906777
2.86249999999999,-0.120719254273854,0.149973943664576
2.87499999999999,-0.356580645669866,0.415925293977862
2.88749999999999,-0.539599491925471,0.617211254595755
2.89999999999999,-0.641460801500451,0.723670231329058
2.91249999999999,-0.6459857264969,0.719618737008268
2.92499999999999,-0.551804202055746,0.606303017255345
2.93749999999999,-0.37262010577429,0.401545067184237
2.94999999999999,-0.13524133612733,0.136971448022259
2.96249999999999,0.124440161697304,-0.14688725087606
2.97499999999999,0.36689124856744,-0.406811773381091
2.98749999999999,0.554916511561055,-0.603445422347895
2.99999999999999,0.659403449382546,-0.707293823712209
3.01249999999999,0.663825751181352,-0.703131483892001
3.02499999999999,0.566828973958579,-0.592219473803145
3.03749999999999,0.382571818510714,-0.392039553521339
3.04999999999999,0.13863034586687,-0.133520458892175
3.06249999999999,-0.128086583541545,0.143707387861368
3.07499999999999,-0.376973522014514,0.397443892304374
3.08749999999999,-0.569870419066379,0.589288190838339
3.09999999999999,-0.676926365689962,0.690471499912988
3.11249999999999,-0.681242135493956,0.686198735137052
3.12499999999999,-0.581494924527042,0.577763069728556
3.13749999999999,-0.392275282975116,0.382285255503192
3.14999999999999,-0.141937839598566,0.129994474122985
3.16249999999999,0.131652455421153,-0.140442175595142
3.17499999999999,0.386816177295161,-0.387827850950801
3.18749999999999,0.58445920589196,-0.574754327706756
3.19999999999999,0.694022344781478,-0.673217181048256
3.21249999999999,0.698226128420236,-0.668835550923258
3.22499999999999,0.595795704125493,-0.56294688360128
3.23749999999999,0.401731940006278,-0.372290318774162
3.24999999999999,0.145150502880588,-0.126382949484878
3.26249999999999,-0.135129502535875,0.137081100996662
3.27499999999999,-0.396416615695225,0.377971161223104
3.28749999999999,-0.598679421170939,0.559863423265481
3.29999999999999,-0.710678736865648,0.65554001806581
3.31249999999999,-0.714772352853492,0.651054335407917
3.32499999999999,-0.60972023138114,0.54777969071719
3.33749999999999,-0.410941026217629,0.362066976313324
3.34999999999999,-0.148271061578729,0.122689190550062
3.36249999999999,0.138519092229862,-0.133636423871365
3.37499999999999,0.405768651394,-0.367880062359994
3.38749999999999,0.612526737502099,-0.544621923526237
3.39999999999999,0.726890191740643,-0.63745178399957
3.41249999999999,0.730871393124532,-0.632865427282171
3.42499999999999,0.623262046354862,-0.532263728216618
3.43749999999999,0.419891402979387,-0.351614074757563
3.44999999999999,0.151301107558824,-0.118919312950908
3.46249999999999,-0.141828986800191,0.130110086043254
3.47499999999999,-0.41485849392125,0.357550003610456
3.48749999999999,-0.625993316983077,0.529041529030727
3.49999999999999,-0.742645153185432,0.618960925248551
3.51249999999999,-0.74651198989162,0.614277087657429
3.52499999999999,-0.636409529027557,0.516411124709419
3.53749999999999,-0.428574123894137,0.340936786960719
3.54999999999999,-0.15423978628778,0.11507580190655
3.56249999999999,0.145048467960288,-0.126502212272671
3.57499999999999,0.423696410457497,-0.346999460560079
3.58749999999999,0.639060351400813,-0.513121630410776
3.59999999999999,0.757930200152613,-0.600077498713536
3.61249999999999,0.76167723548718,-0.595296770762507
3.62499999999999,0.649157885602275,-0.500232428088111
3.63749999999998,0.436986181857537,-0.330042465506712
3.64999999999998,0.157070549088694,-0.11115678544914
3.66249999999998,-0.148173501540918,0.122811681738681
3.67499999999998,-0.432265245019201,0.336228496311208
3.68749999999998,-0.651720171862094,0.496875802795897
3.69999999999998,-0.772732934519122,0.580812469638902
3.71249999999998,-0.776357246397992,0.575938319059573
3.72499999999998,-0.661491084101813,0.483738691597092
3.73749999999998,-0.445118528700661,0.318938439560834
3.74999999999998,-0.159805929203042,0.107166470138535
3.76249999999998,0.151206181445681,-0.119042847383325
3.77499999999998,0.440554725567125,-0.325242333238486
3.78749999999998,0.663968771769099,-0.480316469786813
3.79999999999998,0.787043110527923,-0.561180270626295
3.81249999999998,0.79054534055599,-0.556217791459456
3.82499999999998,0.673405716392702,-0.466939267284518
3.83749999999998,0.452972077979173,-0.307638366529069
3.84999999999998,0.162440443943728,-0.103112089750633
3.86249999999998,-0.154144148991445,0.115200125609299
3.87499999999998,-0.448562702512272,0.314051528083134
3.88749999999998,-0.675796847222827,0.463456886538469
3.89999999999998,-0.800859881083887,0.541198975424327
3.91249999999998,-0.804236031031286,0.536151135138073
3.92499999999998,-0.684894932726291,0.449848505471305
3.93749999999998,-0.460542410261827,0.296146042905111
3.94999999999998,-0.164974300979435,0.0989912567040454
3.96249999999999,0.156976813108178,-0.111281455170406
3.97499999999999,0.456296139996992,-0.302666205476012
3.98749999999999,0.687199288065585,-0.446308026520583
3.99999999999999,0.81417543476722,-0.520881253682936
4.01249999999999,0.81742465068358,-0.515749960379228
4.02499999999999,0.695956619767492,-0.432474212968015
4.03749999999999,0.467823393352889,-0.284467781516642
4.04999999999999,0.167407468864606,-0.0948139632733341
4.06249999999999,-0.159718354479714,0.10729980951958
4.07499999999999,-0.463739965501085,0.291092832741001
4.08749999999999,-0.698174066093377,0.428879043207102
4.09999999999999,-0.826979747564286,0.500234233253072
4.11249999999999,-0.830098414016973,0.495021607733761
4.12499999999999,-0.706587466347851,0.414832312946911
4.13749999999999,-0.47480694456814,0.272605922242293
4.14999999999999,-0.169734595705374,0.0905724034744249
4.16249999999999,0.162359663341151,-0.103248335315032
4.17499999999999,0.470894141279051,-0.279334176412773
4.18749999999999,0.708710782325223,-0.411179628225901
4.19999999999999,0.839262834664993,-0.479270107028164
4.21249999999999,0.842251682555127,-0.473980896047594
4.22499999999999,0.716764030821279,-0.396922421112092
4.23749999999999,0.481492955164304,-0.260574098505718
4.24999999999999,0.171948303648717,-0.0862715706548228
4.26249999999999,-0.164895149158077,0.099130807067019
4.27499999999999,-0.477752810432599,0.267401641736337
4.28749999999999,-0.71879413154632,0.393215134535579
4.29999999999999,-0.851014882052231,0.458001403515957
4.3125,-0.853868522817591,0.4526389992669
4.325,-0.726485803028248,0.378761672835988
4.3375,-0.487872813502463,0.248376231492009
4.35,-0.174053091231932,0.0819143427195274
4.3625,0.167329104854068,-0.0949484568360546
4.375,0.48430266355358,-0.255292069863465
4.3875,0.728424285846944,-0.375006760243187
4.4,0.862224177324336,-0.436443959906358
4.4125,0.864941844031469,-0.4310115251121
4.425,0.735749683314856,-0.360363428089691
4.4375,0.493936627787859,-0.236021153488585
4.45,0.17605955207863,-0.0775154489838348
4.4625,-0.169659695766007,0.0907102267318372
4.475,-0.49054583566322,0.243025607065445
4.4875,-0.737592709020932,0.356561760430469
4.5,-0.87288946778738,0.414613961929367
4.5125,-0.875469550658725,0.409115873501646
4.525,-0.744549774349878,0.341740979648112
4.5375,-0.49969957071909,0.223523002345468
4.55,-0.177941567220625,0.0730618771093355
4.5625,0.171876612609831,-0.0864110445001434
4.575,0.49648323524992,-0.230609202143806
4.5875,0.746293779446737,-0.337894704381298
4.6,0.883006836667325,-0.392526782060909
4.6125,0.885449448011598,-0.386965582700206
4.625,0.752881489859818,-0.322906914865814
4.6375,0.505150145262737,-0.210885258362858
4.65,0.179716939699318,-0.0685632139922306
4.66250000000001,-0.173986354075313,0.0820609965853489
4.67500000000001,-0.502109038755365,0.218051207849009
4.68750000000001,-0.754531326150948,0.319016145696278
4.70000000000001,-0.892571304901027,0.370192620221775
4.71250000000001,-0.894874916701405,0.36457247133186
4.72500000000001,-0.760742462405347,0.303866871170199
4.73750000000001,-0.510280055114135,0.198112970549758
4.75000000000001,-0.18138371174972,0.0640205174544804
4.76250000000001,0.175996318983719,-0.0776615629790522
4.77500000000001,0.507411916816207,-0.205348688608757
4.78750000000001,0.762297402550949,-0.299937938203413
4.80000000000001,0.901575508669718,-0.347624641149121
4.81250000000001,0.903738037356224,-0.341947751736603
4.82500000000001,0.768124519985128,-0.284635346892912
4.83750000000001,0.51508635178239,-0.185213678096069
4.85000000000001,0.182933431156953,-0.059437231792399
4.86250000000001,-0.17788565492525,0.0732087885595247
4.87500000000001,-0.512408965174947,0.192521844399962
4.88750000000001,-0.76957849649565,0.280667360038472
4.90000000000001,-0.910009224754431,0.324836015901024
4.91250000000001,-0.912027802331024,0.319105976585632
4.92500000000001,-0.775016063890501,0.265219510140187
4.93750000000001,-0.51956746858622,0.172198144912453
4.95000000000001,-0.184362922573361,0.0548191294280008
4.96250000000001,0.179663338628844,-0.0687103365832067
4.97500000000001,0.517076311613019,-0.179571369064293
4.98750000000001,0.776370881017317,-0.261219633496495
5.00000000000001,0.917863727191749,-0.301841422302321
5.01250000000002,0.919736011062798,-0.296061841773886
