"Time [ms]","InducedVoltage(Cos_Winding) [mV]","InducedVoltage(Sin_Winding) [mV]"
0,964.456135736014,-558.598567545106
0.0125,839.438658453327,-480.571005288822
0.025,714.421181170639,-402.543443032539
0.0375,479.963960883052,-264.359317087928
0.05,171.461183714484,-87.6380575909304
0.0625,-164.297310230084,100.406761940861
0.075,-476.165369012177,271.138871420898
0.0875,-716.484067430125,398.864175520012
0.1,-848.338238551387,464.70201466114
0.1125,-851.238151868079,459.374874263142
0.125,-724.297822564163,384.502849246225
0.1375,-486.455243161954,252.246639793247
0.15,-173.603593408891,83.3108461182814
0.1625,166.763834841568,-96.2594692375371
0.175,482.82274004488,-259.115127240264
0.1875,726.271042477144,-380.774968911023
0.2,859.737194641999,-443.28564457412
0.2125,862.501951158334,-437.886624192192
0.225,733.725599417242,-366.222057398817
0.2375,492.630854778691,-239.966486738105
0.25,175.640205676735,-78.9307214090424
0.2625,-169.130196066608,92.0469665042145
0.275,-489.17508842794,246.928521350358
0.2875,-735.602720396252,362.444418382006
0.3,-870.590607166391,421.585983992283
0.3125,-873.219381806047,416.118249251674
0.325,-742.683513978858,347.705877784189
0.3375,-498.49349197039,227.534738595214
0.35,-177.563743956837,74.4990769559304
0.3625,171.390798710678,-87.780602241945
0.375,495.215333285281,-234.582864917823
0.3875,744.461997845724,-343.877844738415
0.4,880.892002898378,-399.616631179545
0.4125,883.379250036359,-394.084244456233
0.425,751.165894745524,-328.966145648296
0.4375,504.040596740881,-214.957539902411
0.45,179.366711260646,-70.017299855954
0.4625,-173.532050356839,83.449232033606
0.475,-500.944094344838,222.086595836706
0.4875,-752.846653346923,325.096767455872
0.5,-890.629655785493,377.39263497591
0.5125,-892.97648316958,371.799946311192
0.525,-759.169316092006,310.017979891457
0.5375,-509.268943834931,202.247231060821
0.55,-181.069758289787,65.4985429090482
0.5625,175.574267409,-79.0724986251939
0.575,506.350521024613,-209.449618754455
0.5875,760.755520991076,-306.108097173148
0.6,899.80419301126,-354.933486058875
0.6125,902.007957977476,-349.283019678807
0.625,766.701815292998,-290.878176790324
0.6375,514.17167695109,-189.40876409409
0.65,182.654288327947,-60.938159502082
0.6625,-177.501070781801,74.6428157884516
0.675,-511.436875142558,196.682670097604
0.6875,-768.184891747028,286.930795231081
0.7,-908.412901947965,332.251839333178
0.7125,-910.477491743802,326.548659021904
0.725,-773.747508365968,271.556909838342
0.7375,-518.758396560777,176.45271080695
0.75,-184.123070811603,56.336574014814
0.7625,179.312912567186,-70.1682137214786
0.775,516.210069012657,-183.795121644785
0.7875,775.128987393366,-267.569810260884
0.8,916.454499580234,-309.361708440658
0.812500000000001,918.374548499079,-303.606985133337
0.825000000000001,780.30956652486,-252.062039065432
0.837500000000001,523.017474222684,-163.383452749605
0.850000000000001,185.473058954785,-51.69818568991
0.862500000000001,-181.013076714624,65.6474062505786
0.875000000000001,-520.648442895449,170.787154995725
0.887500000000001,-781.595019193104,248.042751668488
0.900000000000001,-923.9181104875,286.273350057062
0.912500000000001,-925.692698793716,280.472560664261
0.925000000000001,-786.378124353356,232.405461881906
0.937500000000001,-526.939033510768,150.209212063206
0.950000000000001,-186.717425677505,47.0275771251212
0.962500000000001,182.606988191454,-61.0871353268654
0.975000000000001,524.763840099404,-157.670437666039
0.987500000000001,787.561987748044,-228.355035397074
1,930.794467383979,-263.002203678069
1.0125,932.420819618733,-257.156907603968
1.025,791.946018239832,-212.599655165867
1.0375,530.534627947906,-136.940522148572
1.05,187.826353792627,-42.3278514303231
1.0625,-184.079287125554,56.4867994939701
1.075,-528.546046635095,144.454001241736
1.0875,-793.024657701787,208.521637598487
1.1,-937.077829240161,239.562498293198
1.1125,-938.555612849452,233.678739189052
1.125,-797.008046559182,192.661162380053
1.1375,-533.786595677108,123.582439198736
1.15,-188.823220182328,37.601274583159
1.1625,185.433590941558,-51.8498526163022
1.175,531.990958865585,-131.145772604207
1.1875,797.983035470631,-188.555030665221
1.2,942.765891094013,-215.972959744332
1.2125,944.095503904881,-210.053982666869
1.225,801.568451070325,-172.601665160904
1.2375,536.703640332625,-110.151488776989
1.25,189.700699059579,-32.8516153277979
1.2625,-186.675090715691,47.1803793980481
1.275,-535.091023261562,117.755540515363
1.2875,-802.441836298488,168.473124270393
1.3,-947.860345208467,192.249707970624
1.3125,-949.041274088319,186.30032675656
1.325,-805.62413906164,152.436119307969
1.3375,-539.284898590785,96.6495452879624
1.35,-190.461874468851,28.0814766161484
1.3625,187.787871869584,-42.4793579368166
1.375,537.866178875557,-104.292167047941
1.3875,806.395158702693,-148.287822357703
1.4,952.362977878827,-168.408120847631
1.4125,953.395505334349,-162.430133148944
1.425,809.171844580378,-132.172619782617
1.4375,541.532650712089,-83.0907191509319
1.45,191.103136202161,-23.294634407993
1.4625,-188.793349728956,37.7569514589159
1.475,-540.299155336308,90.7644693804035
1.4875,-809.842651007029,128.007852624157
1.5,-956.267981882852,144.458833193147
1.5125,-957.148995670148,138.456364081015
1.525,-812.221150711066,111.828111987526
1.5375,-543.430174963963,69.4738880304088
1.55,-191.623082379136,18.4910931597028
1.5625,189.676727642066,-33.0074395788853
1.575,542.399309592181,-77.1785716454402
1.5875,812.78111068071,-107.646316964905
1.6,959.566256936444,-120.417129235937
1.6125,960.297369986305,-114.393574569204
1.625,814.74957060065,-91.4106819278108
1.6375,544.985246965752,-55.8149863917011
1.65,192.018343908388,-13.6758329359337
1.6625,-190.441234000938,28.2398385489501
1.675,-544.151093656812,63.5436730964105
1.6875,-815.201697059798,87.2137501696654
1.7,-962.256507877079,96.2978141196786
1.7125,-962.83417153848,90.2583147923271
1.725,-816.757072212966,70.9352168669977
1.7375,-546.196344075219,42.1189749267187
1.75,-192.28555918164,8.85035847503174
1.7625,191.08055067987,-23.4475819142837
1.775,545.55388600512,-49.8667261629312
1.7875,817.106752608691,-66.7294369951369
1.8,964.331958846257,-72.1191200987851
1.8125,964.759284725068,-66.067272887219
1.825,818.247648207866,-50.4162736736644
1.8375,547.058490575859,-28.4006004103856
1.85,192.44689947256,-4.02451287897508
1.8625,-191.607212801407,18.6463490757696
1.875,-546.61137941058,36.160400334387
1.8875,-818.490919197023,46.203664329308
1.9,-965.80281270768,47.8982461643862
1.9125,-966.074685805472,41.8385960709074
1.925,-819.226901944904,29.8686486807169
1.9375,-547.576699950293,14.6661659009786
1.95,-192.482619320816,-0.80391015773382
1.9625,192.006935096972,-13.8311963420709
1.97499999999999,547.326686469849,-22.4333612131365
1.98749999999999,819.360671817468,-25.6538043612541
1.99999999999999,966.666614772089,-23.6511386304814
2.01249999999999,966.787703565089,-17.5868385677675
2.02499999999999,819.69269178686,-9.30610699763354
2.03749999999999,547.756475899407,-0.923210218658712
2.04999999999999,192.394925119617,5.63229777820578
2.06249999999999,-192.282573774137,9.01180088154989
2.07499999999999,-547.70482162787,8.69541783688506
2.08749999999999,-819.718542029565,5.08605332932129
2.09999999999999,-966.925860075351,-0.609414046772898
2.11249999999999,-966.893485508407,-6.67506822550297
2.12499999999999,-819.643122730426,-11.263854003718
2.13749999999999,-547.595193799591,-12.8218452684044
2.14999999999999,-192.185420355974,-10.4586209968195
2.16249999999999,192.444257830656,-4.18322141518679
2.17499999999999,547.727827289317,5.04954178078964
2.18749999999999,819.56813469978,15.482101759016
2.19999999999999,966.577003711779,24.8709663745912
2.21249999999999,966.394446013808,30.9344787250314
2.22499999999999,819.066222844121,31.8247438501784
2.23749999999999,547.086362369934,26.5588261350406
2.24999999999999,191.859753959097,15.2797498418133
2.26249999999999,-192.486680723195,-0.647052773928225
2.27499999999999,-547.410848712118,-18.7919163940573
2.28749999999999,-818.894333626877,-36.0422376848111
2.29999999999999,-965.614923260008,-49.1165917620518
2.31249999999999,-965.278580109971,-55.1741469161841
2.32499999999999,-817.98319576689,-52.3695451920998
2.33749999999999,-546.21595386375,-40.2756654302458
2.34999999999999,-191.409910748294,-20.0883163011422
2.36249999999999,192.403643140456,5.47737968256585
2.37499999999999,546.748599141906,32.5225031531063
2.38749999999999,817.697046461423,56.5771446145584
2.39999999999999,964.038352881535,73.330646451681
2.41249999999999,963.547300063238,79.3761971757422
2.42499999999999,816.377713299239,72.8759725100808
2.43749999999999,545.002625776282,53.9669301528158
2.44999999999999,190.834790355867,24.8844966939245
2.46249999999999,-192.192184046985,-10.3024935680906
2.47499999999999,-545.7370952385,-46.2313967086013
2.48749999999999,-815.983285753961,-77.0761022370652
2.49999999999999,-961.849865587181,-97.4936041377581
2.51249999999999,-961.207955391658,-103.524697895201
2.52499999999999,-814.255257450359,-93.3331765375967
2.53749999999999,-543.460285552681,-67.6237337471975
2.54999999999999,-190.123968753205,-29.6565899696702
2.56249999999999,191.855794493945,15.1180401525154
2.57499999999999,544.377154936755,59.9066228830529
2.58749999999999,813.757116207824,97.5225048393446
2.59999999999999,959.05740263914,121.591030394137
2.61249999999999,958.266405222005,127.603288435197
2.62499999999999,811.621501692394,113.727304603983
2.63749999999999,541.572902143222,81.2354758479809
2.64999999999999,189.323475990941,34.4216732525695
2.66249999999999,-191.420988126457,-19.9332835816288
2.67499999999999,-542.67557811769,-73.5418939030144
2.68749999999999,-811.020389354434,-117.90330960389
2.69999999999999,-955.667330570975,-145.609255226844
2.71249999999999,-954.72674888796,-151.6007107954
2.72499999999999,-808.480006510178,-134.052123696061
2.73749999999999,-539.344276848763,-94.7927083613453
2.74999999999999,-188.39740959953,-39.1601071477953
2.76249999999999,190.858440650223,24.727961248809
2.77499999999999,540.640268907639,87.1310220461615
2.78749999999999,807.772853807756,138.20964153226
2.79999999999999,951.676879600896,169.537025347542
2.81249999999999,950.585428139631,175.502715464588
2.82499999999999,804.834249973466,154.292084386756
2.83749999999999,536.770893956535,108.293072098082
2.84999999999999,187.348503672152,43.8742912022901
2.86249999999999,-190.164230812079,-29.5041009072897
2.87499999999999,-538.276863778225,-100.672479678358
2.88749999999999,-804.013892433692,-158.427935107565
2.89999999999999,-947.084089828045,-193.357647688782
2.91249999999999,-945.842220421433,-199.294414331806
2.92499999999999,-800.67424042767,-174.43364341661
2.93749999999999,-533.86038002001,-121.724675085411
2.94999999999999,-186.175780319604,-48.5587167215588
2.96249999999999,189.355069888678,34.2637806556038
2.97499999999999,535.551392727462,114.138980544616
2.98749999999999,799.75716407078,178.553006771618
2.99999999999999,941.888995613173,217.055681814446
3.01249999999999,940.497766071037,222.958832185695
3.02499999999999,796.002785834548,194.462231901059
3.03749999999999,530.611380939518,135.080064147455
3.04999999999999,184.883417571641,53.2137323459656
3.06249999999999,-188.424959474195,-39.0063236879843
3.07499999999999,-532.488527550647,-127.538033229221
3.08749999999999,-794.985735676519,-198.557354410105
3.09999999999999,-936.096128814348,-240.613149539168
3.11249999999999,-934.556318954282,-246.479163493045
3.12499999999999,-790.828598374802,-214.366497388984
3.13749999999999,-527.024193273601,-148.344229566017
3.14999999999999,-183.487361542813,-57.835386667691
3.16249999999999,187.382669981018,43.7219925980289
3.17499999999999,529.091058610868,140.853577475099
3.18749999999999,789.707544016916,218.433241574772
3.19999999999999,929.715200636714,264.016465752611
3.21249999999999,928.026393193725,269.840210146882
3.22499999999999,785.160692078189,234.134379901344
3.23749999999999,523.106922752546,161.513653541676
3.24999999999999,181.968510398754,62.4174857377821
3.26249999999999,-186.213948962431,-48.4075183076422
3.27499999999999,-525.362912281991,-154.079745819496
3.28749999999999,-783.935474363291,-238.168435912535
3.29999999999999,-922.750183899123,-287.250029626193
3.31249999999999,-920.917184474798,-293.030082453056
3.32499999999999,-779.000940285675,-253.751606604075
3.33749999999999,-518.867071715632,-174.584009800337
3.34999999999999,-180.334589330571,-66.9599775253419
3.36249999999999,184.929616574615,53.0594113851844
3.37499999999999,521.308825116234,167.206759049899
3.38749999999999,777.67323311276,257.756291990134
3.39999999999999,915.208112083851,310.303214297825
3.41249999999999,913.231346183785,316.036227585165
3.42499999999999,772.349970500852,273.211164599988
3.43749999999999,514.299150537751,187.543942234086
3.44999999999999,178.5890431772,71.4636475663169
3.46249999999999,-183.533657247511,-57.6828378959347
3.47499999999999,-516.918667244329,-180.227572672409
3.48749999999999,-770.92750616062,-277.182513203159
3.49999999999999,-907.089680807392,-333.162058608036
3.51249999999999,-904.970575349572,-338.845054432399
3.52499999999999,-765.210805965683,-292.497752582975
3.53749999999999,-509.403121248182,-200.385128227939
3.54999999999999,-176.732671009789,-75.9238694653669
3.56249999999999,182.021204239222,62.2691350895979
3.57499999999999,512.210419143091,193.138913935898
3.58749999999999,763.689428907705,296.433049411531
3.59999999999999,898.396122344667,355.810706663833
3.61249999999999,896.133535750167,361.438824767744
3.62499999999999,757.587560760921,311.602589071861
3.63749999999998,504.185293992886,213.099723566152
3.64999999999998,174.757463525809,80.3291940364296
3.66249999999998,-180.391498353924,-66.8139111191641
3.67499999999998,-507.175975631904,-205.928572019307
3.68749999999998,-755.965352484798,-315.494492767925
3.69999999999998,-889.131028601038,-378.233355981893
3.71249999999998,-886.726418647862,-383.802002930229
3.72499999999998,-749.484865925611,-330.504914611743
3.73749999999998,-498.644831079934,-225.678564546829
3.74999999999998,-172.673274323236,-84.687546048319
3.76249999999998,178.647103403776,71.3193055285276
3.77499999999998,501.816329052407,218.583149200918
3.78749999999998,747.763720099345,334.357086772969
3.79999999999998,879.302238462367,400.413487082007
3.81249999999998,876.759996030268,405.919953238882
3.82499999999998,740.908724628543,349.198674356279
3.83749999999998,492.795075229207,238.112793263898
3.84999999999998,170.482915776332,88.9905310385136
3.86249999999998,-176.791287229926,-75.7785523276628
3.87499999999998,-496.139279038547,-231.09810919968
3.88749999999998,-739.091784963936,-353.005572404846
3.89999999999998,-868.924361449927,-422.339718463845
3.91249999999998,-866.245329588046,-427.779892903187
3.92499999999998,-731.868467967476,-367.668213940575
3.93749999999998,-486.638357537434,-250.398773036791
3.94999999999998,-168.185299471506,-93.2392556244626
3.96249999999999,174.817991796323,80.1871514943498
3.97499999999999,490.156504549581,243.47098069647
3.98749999999999,729.95773124752,371.428303685104
3.99999999999999,858.005227988251,443.999700127328
4.01249999999999,855.190919691545,449.371416037497
4.02499999999999,722.369336930945,385.909407527321
4.03749999999999,480.176824954931,262.525389203728
4.04999999999999,165.788030787068,97.427934124798
4.06249999999999,-172.744430898913,-84.5451884859474
4.07499999999999,-483.866422961807,-255.686420070261
4.08749999999999,-720.367893002344,-389.621512641431
4.09999999999999,-846.546366491362,-465.381026243782
4.11249999999999,-843.596526199302,-470.680707047378
4.12499999999999,-712.422852913596,-403.910334394361
4.13749999999999,-473.407735728657,-274.486995154825
4.14999999999999,-163.281818557853,-101.558708264766
4.16249999999999,170.560200564268,88.8522534378365
4.17499999999999,477.271323275013,267.743724250018
4.18749999999999,710.325049190734,407.570472227217
4.19999999999999,834.552361361051,486.470295493401
4.21249999999999,831.471362367049,491.695843092406
4.22499999999999,702.017839120795,421.653084429898
4.23749999999999,466.341707001181,286.276371008248
4.24999999999999,160.668665580361,105.620742336204
4.26249999999999,-168.266831388405,-93.1001414016634
4.27499999999999,-470.377830190069,-279.63282846174
4.28749999999999,-699.825499507438,-425.260096031955
4.29999999999999,-822.029413946626,-507.252975568862
4.3125,-818.816768755041,-512.398093641927
4.325,-691.168045346435,-439.128125620417
4.3375,-458.97877147816,-297.884115657714
4.35,-157.951325144606,-109.617219624893
4.3625,165.86508358699,97.2936568486069
4.375,463.176975353969,291.344339228072
4.3875,688.888560369074,442.67935984388
4.4,808.984292379524,527.710199222597
4.4125,805.643174583726,532.772466698141
4.425,679.882892464384,456.325871776023
4.4375,451.32258281688,309.297075151301
4.45,155.148550943268,113.546946143648
4.4625,-163.36330165973,-101.425447355509
4.475,-455.686974195252,-302.866951166358
4.4875,-677.515618770498,-459.817691470265
4.5,-795.431307117236,-547.832270422654
4.5125,-791.964787018299,-552.808664569527
4.525,-668.172293254212,-473.232729753985
4.5375,-443.392245167955,-320.519476048622
4.55,-152.236962283475,-117.398004041093
4.5625,160.753003535512,105.489150131046
4.575,447.913311568974,314.200558431782
4.5875,665.717651887695,476.661018895457
4.6,781.3823216658,567.608147600978
4.6125,777.79320001322,572.497012423298
4.625,656.044472165177,489.838779565857
4.6375,435.18435852416,331.542210914127
4.65,149.233637898547,121.17883926937
4.66250000000001,-158.045079685071,-109.485524068907
4.67500000000001,-439.862573415251,-325.334434875513
4.68750000000001,-653.504200827692,-493.208705595547
4.70000000000001,-766.843815574012,-587.028178325229
4.71250000000001,-763.133822060431,-591.82572164659
4.72500000000001,-643.504977952954,-506.142596997127
4.73750000000001,-426.699234550455,-342.352618040097
4.75000000000001,-146.136720779019,-124.888152887361
4.76250000000001,155.243566972766,113.42007068346
4.77500000000001,431.525400566942,336.260870040168
4.78750000000001,640.882977837869,509.448035260296
4.80000000000001,751.822810866302,606.080114279441
4.81250000000001,747.992946656337,610.783915214355
4.82500000000001,630.559424054895,522.126858095445
4.83750000000001,417.943285082258,352.948414595522
4.85000000000001,142.946035422827,128.515561271806
4.86250000000001,-152.335417985009,-117.275801604494
4.87500000000001,-422.928014092352,-346.985732624073
4.88750000000001,-627.853190105387,-525.36413644513
4.90000000000001,-736.325069899464,-624.749079238899
4.91250000000001,-732.377207885768,-629.355322947185
4.92500000000001,-617.207531976202,-537.778098743979
4.93750000000001,-408.927703759311,-363.323712109652
4.95000000000001,-139.663022216522,-132.054478494772
4.96250000000001,149.333686070339,121.058276202065
4.97500000000001,414.05759887936,357.486602832106
4.98750000000001,614.425042317673,540.94640322989
5.00000000000001,720.359139436538,643.020330767853
5.01250000000002,716.29532752457,647.524951903517
5.02500000000002,603.473042160016,553.087628457942
5.03750000000002,399.644841126324,373.461201476679
5.05000000000002,136.293564114595,135.518132015451
5.06250000000002,-146.238304709205,-124.768967920237
5.07500000000002,-404.922411765292,-367.755045926707
5.08750000000002,-600.609649675542,-556.187290900656
5.10000000000002,-703.936409603095,-660.880609885997
5.11250000000002,-699.763265418263,-665.282625025602
5.12500000000002,-589.355747960916,-568.047734069614
5.13750000000002,-390.11506814351,-383.364151422269
5.15000000000002,-132.840269668885,-138.892897973795
5.16250000000002,143.049827319338,128.396552510349
5.17500000000002,395.534245640988,377.793414504092
5.18750000000002,586.413924001675,571.071563929169
5.20000000000002,687.076355058677,678.325878328829
5.21250000000002,682.793880749776,682.620374499075
5.22500000000002,574.869384565236,582.645716025455
5.23750000000002,380.343916844348,393.030197441761
