"Time [ms]","InducedVoltage(Cos_Winding) [V]","InducedVoltage(Sin_Winding) [V]"
0,0.00202426940579358,1.1095908415755
0.0125,-0.00309874861479881,0.9629637337794
0.025,-0.0082217666353912,0.8163366259833
0.0375,-0.0107820823902528,0.545410957622379
0.05,-0.00973242376680571,0.191449411852017
0.0625,-0.00488556796671553,-0.191634016974202
0.075,0.00302117705857766,-0.545506462871315
0.0875,0.0124339121154842,-0.816283693579821
0.1,0.0212655002286381,-0.962736556945756
0.1125,0.0273203853383318,-0.962585844469451
0.125,0.0287546469804497,-0.815871075614024
0.1375,0.0244964722210687,-0.544972333265993
0.15,0.0145465215696665,-0.191146161645478
0.1625,6.49870542335694e-05,0.1917042639625
0.175,-0.016741899818471,0.545254316237992
0.1875,-0.0329638493769956,0.815714858336895
0.2,-0.0454772639973671,0.961901977592548
0.2125,-0.0515265066823927,0.961598612265439
0.225,-0.0492700341659658,0.814895572598097
0.2375,-0.0381993597450858,0.544182458411111
0.25,-0.0193515224824806,0.190723450487116
0.2625,0.00475669380505324,-0.19164066959424
0.275,0.0304547433074437,-0.544671297380833
0.2875,0.0534745300593998,-0.814630865675917
0.3,0.0696614559902277,-0.96045726224249
0.3125,0.0757018941632749,-0.959999868006915
0.325,0.0697551413823753,-0.813403519461804
0.3375,0.0518773623682057,-0.543047345797906
0.35,0.0241433579213739,-0.190176095241246
0.3625,-0.00957531065091989,0.191460079076626
0.375,-0.044147888228148,0.543734326908415
0.3875,-0.0739520990940326,0.813030638926213
0.4,-0.0938024579465874,0.958401784728416
0.4125,-0.0998289399385295,0.957792627543846
0.425,-0.0901956091827748,0.811388108263006
0.4375,-0.065523627470703,0.541574802987234
0.45,-0.028919502282986,0.189500266630928
0.4625,0.014390668283645,-0.191154639804696
0.475,0.0578122971985219,-0.542451997929513
0.4875,0.0943821646663346,-0.810913618183143
0.5,0.117882548868448,-0.955735550631628
0.5125,0.123891705579656,-0.954976698052502
0.525,0.11057689309641,-0.808859333447822
0.5375,0.079126323636236,-0.539755293498738
0.55,0.0336780011622105,-0.188716224322774
0.5625,-0.0191958162540507,0.190736804894467
0.575,-0.0714395022749937,0.540821949671446
0.5875,-0.114750457541773,0.80828047197418
0.6,-0.141887147547956,0.952468323903646
0.6125,-0.147873428974533,0.951556752179226
0.625,-0.130889782487487,0.805824162907065
0.6375,-0.0926762601848203,0.537589039202382
0.65,-0.0384129507567019,0.187816326053966
0.6625,0.0239883237013241,-0.190194939063233
0.675,0.0850203099221193,-0.538852352000585
0.6875,0.13504390023175,-0.805138050312165
0.7,0.165799888748657,-0.9486009400815
0.7125,0.171761782984695,-0.947540514558609
0.725,0.151116909079905,-0.802281425866026
0.7375,0.106170171450693,-0.535094780674675
0.75,0.0431250804553975,-0.186788595515
0.7625,-0.028761515936491,0.189525771118431
0.775,-0.0985476801645286,0.536553288780604
0.7875,-0.155255250101951,0.801488466958488
0.8,-0.18960949796746,0.944137790872117
0.812500000000001,-0.195543664172477,0.942927215967768
0.825000000000001,-0.171251957645402,0.798232965664927
0.837500000000001,-0.119598164692592,0.532260430903211
0.850000000000001,-0.0478104425283531,0.185644851858171
0.862500000000001,0.0335200338520145,-0.188743100248786
0.875000000000001,0.11201368820644,-0.533905398760484
0.887500000000001,0.175369179806695,-0.797340247520825
0.900000000000001,0.213301327429761,-0.939076718967916
0.912500000000001,0.219204154692747,-0.937718607124804
0.925000000000001,0.191278916863334,-0.793678891859725
0.937500000000001,0.132949637235302,-0.529083917350306
0.950000000000001,0.0524690949412832,-0.184389379117167
0.962500000000001,-0.0382597344178688,0.18784837550118
0.975000000000001,-0.125410116560766,0.530919190126282
0.987500000000001,-0.195373319500945,0.792683612256672
1,-0.236858633509716,0.933419618672579
1.0125,-0.242725735690995,0.931913377197718
1.025,-0.211186260255866,0.788620458947128
1.0375,-0.146218003212833,0.525575408815529
1.05,-0.0570883077239098,0.183007877137133
1.0625,0.0429728424318548,-0.186824749641092
1.075,0.138728029324105,-0.527603198403552
1.0875,0.215251768747773,-0.7875187473617
1.1,0.260265666690826,-0.927170427781662
1.1125,0.266092044998773,-0.925515713806538
1.125,0.230956812340873,-0.783058709191717
1.1375,0.159393259500341,-0.521733508967292
1.15,0.0616733255786837,-0.181513365739575
1.1625,-0.0476598523976187,0.185684481256381
1.175,-0.151957029459247,0.523947697307474
1.1875,-0.234993234430337,0.781856744360471
1.2,-0.283505326440929,0.920332375870691
1.2125,-0.289287890870304,0.918531419999071
1.225,-0.250580735138479,0.777006094251505
1.2375,-0.172465967995358,0.517559947997263
1.25,-0.0662183496052398,0.17990915369235
1.2625,0.052318582080935,-0.184432454207346
1.275,0.165083909596643,-0.519956429218769
1.2875,0.254586441026972,-0.775704344951017
1.3,0.306564011267859,-0.912913388636721
1.3125,0.312298623474799,-0.910969783440956
1.325,0.270044180891184,-0.770463795484351
1.3375,0.185430340743132,-0.513065358159617
1.35,0.0707238793163659,-0.178188960338468
1.3625,-0.0569393168740649,0.183054430954079
1.375,-0.17811259918861,0.515647225554519
1.3875,-0.274015424840628,0.769060882474319
1.4,-0.32942968388454,0.904925359514277
1.4125,-0.33511481874369,0.902839136001274
1.425,-0.28933873629121,0.763431572551454
1.4375,-0.198278164323722,0.508251941402098
1.45,-0.075182698066699,0.17635380774706
1.4625,0.0615228354357892,-0.181563764366639
1.475,0.19102734459677,-0.511011703268166
1.4875,0.29327479531084,-0.761935524017637
1.5,0.352089442497927,-0.896365467102221
1.5125,0.357720406419356,-0.894136783003256
1.525,0.308453694100477,-0.755928587590381
1.5375,0.210999877140601,-0.503104629213748
1.55,0.079597359893683,-0.174412949563973
1.5625,-0.0660719396537379,0.179964723944005
1.575,-0.203821462375052,0.506049330348522
1.5875,-0.312351654440532,0.754332485525065
1.6,-0.374526281502017,0.88723641060764
1.6125,-0.380100356130447,0.884867163127096
1.625,-0.327372244645949,0.747941879379705
1.6375,-0.223588060451455,0.497642906320311
1.65,-0.0839591768408716,0.172357290361847
1.6625,0.0705770003220582,-0.178246909552906
1.675,0.216487473691298,-0.500771319727758
1.6875,0.33122787215056,-0.746243855212563
1.7,0.396727492373607,-0.877547155727341
1.7125,0.402238509869636,-0.875037286467877
1.725,0.346080840689771,-0.739476592360938
1.7375,0.236036376277169,-0.491869943732643
1.75,0.0882632359032534,-0.170181504291463
1.7625,-0.0750365660435375,0.176408753999207
1.775,-0.229016646344427,0.495174647243669
1.7875,-0.349891753230208,0.737682376923117
1.8,-0.418673997590046,0.867299549716156
1.8125,-0.424119234002226,0.864651647907947
1.825,-0.364569274725809,0.730546457154122
1.8375,-0.248330731642686,0.485781564911859
1.85,-0.0925195164059056,0.167918864928437
1.8625,0.0794544983885653,-0.174476339520561
1.875,0.241396836997689,-0.489259274300013
1.8875,0.368334348311175,-0.728658617557147
1.9,0.440353073600002,-0.856504304528215
1.9125,0.445727751192414,-0.853720042731414
1.925,0.382828752192702,-0.721158892842644
1.9375,0.260466504585432,-0.479386500722889
1.95,0.0967119372704904,-0.165545595665392
1.9625,-0.0838179809226236,0.17242420208132
1.97499999999999,-0.253623754699856,0.483039224520435
1.98749999999999,-0.3865401510479,0.719173843626928
1.99999999999999,-0.461753059091884,0.845173762739118
2.01249999999999,-0.467057862386963,0.842257919322207
2.02499999999999,-0.400840728837261,0.711314549383205
2.03749999999999,-0.272443131866021,0.472699544069506
2.04999999999999,-0.100843307685156,0.163062152134858
2.06249999999999,0.0881237584634455,-0.170260744526868
2.07499999999999,0.265694459764967,-0.476526313966093
2.08749999999999,0.404503405565197,-0.709234603846731
2.09999999999999,0.482863407553998,-0.833312503548603
2.11249999999999,0.488093744986084,-0.830264514781047
2.12499999999999,0.418604548979568,-0.701024954768373
2.13749999999999,0.284245360195727,-0.465708923268279
2.14999999999999,0.104914196772937,-0.160480096103736
2.16249999999999,-0.0923800077513604,0.167996548967785
2.17499999999999,-0.277591913892797,0.46969707622273
2.18749999999999,-0.422216648853069,0.698860632299796
2.19999999999999,-0.503669281009168,0.820924232408532
2.21249999999999,-0.508821459579868,0.817745693694839
2.22499999999999,-0.436104857442227,0.690294480672903
2.23749999999999,-0.295863424930413,0.458418063254007
2.24999999999999,-0.108922254232588,0.157799399522634
2.26249999999999,0.0965784391612814,-0.165627336902544
2.27499999999999,0.289317949210059,-0.462576910098013
2.28749999999999,0.439659952450675,-0.688037372671184
2.29999999999999,0.524155655982592,-0.808016018419199
2.31249999999999,0.529226419191863,-0.804709313479264
2.32499999999999,0.453326046376332,-0.679121066591977
2.33749999999999,0.30730136851518,-0.450847151128151
2.34999999999999,0.112848582857023,-0.155007031108456
2.36249999999999,-0.100710835516407,0.163145342981238
2.37499999999999,-0.300861642597944,0.455167622598726
2.38749999999999,-0.456821353665917,0.67677560924259
2.39999999999999,-0.544308585780377,0.794595988432004
2.41249999999999,-0.549292990152511,0.791161689601802
2.42499999999999,-0.470256700419752,0.667518709747653
2.43749999999999,-0.318540349874112,0.442986188510016
2.44999999999999,-0.116709663492636,0.152123461012299
2.46249999999999,0.104783002639138,-0.160564667124396
2.47499999999999,0.312210125018877,-0.447464326817007
2.48749999999999,0.473693668577317,-0.665088520387882
2.49999999999999,0.564112908372362,-0.780672535457886
2.51249999999999,0.569009081554924,-0.777114340322104
2.52499999999999,0.486890583944636,-0.65549915566485
2.53749999999999,0.329574165077932,-0.434843493639416
2.54999999999999,0.120498098483136,-0.149148999217115
2.56249999999999,-0.108792061825322,0.157885883960077
2.57499999999999,-0.323355558087089,0.439478422560375
2.58749999999999,-0.490264770858463,0.652982962362443
2.59999999999999,-0.583559538958605,0.766258720875762
2.61249999999999,-0.588363863002349,0.762580671574946
2.62499999999999,-0.503213801508931,0.64306637281608
2.63749999999999,-0.340404285450446,0.426435604551532
2.64999999999999,-0.124208798558407,0.146073823413018
2.66249999999999,0.112722176638847,-0.155098238175909
2.67499999999999,0.334306629363881,-0.431224488116236
2.68749999999999,0.506522587789169,-0.640465670584087
2.69999999999999,0.602639355440441,-0.751368076358382
2.71249999999999,0.607350613171696,-0.74757091335184
2.72499999999999,0.519220541478763,-0.630226243382597
2.73749999999999,0.351019620670616,-0.417759603018514
2.74999999999999,0.127840597736787,-0.142909661682693
2.76249999999999,-0.11658363688889,0.152219630129159
2.77499999999999,-0.345041991376406,0.42269601000455
2.78749999999999,-0.522466045866265,0.627548595779405
2.79999999999999,-0.621339699637338,0.736002186401432
2.81249999999999,-0.625953777924906,0.732087431999154
2.82499999999999,-0.534905419258466,0.616997872880429
2.83749999999999,-0.361408289833465,0.408809484986628
2.84999999999999,-0.131396434084359,0.139658171178271
2.86249999999999,0.120376530805822,-0.14924840406689
2.87499999999999,0.355559232174696,-0.413898231702105
2.88749999999999,0.538081507795473,-0.614236321735423
2.89999999999999,0.639646651079398,-0.72017000438316
2.91249999999999,0.644161763247194,-0.716140420882073
2.92499999999999,0.550247091244026,-0.603372763767646
2.93749999999999,0.371570880086614,-0.399606096664031
2.94999999999999,0.134863635549206,-0.136312603561071
2.96249999999999,-0.124087920224647,0.146176293169874
2.97499999999999,-0.36585467965497,0.404844262161223
2.98749999999999,-0.553351056062329,0.600529206217898
2.99999999999999,-0.657549714939852,0.703882124168898
3.01249999999999,-0.661960164664007,0.69973986262024
3.02499999999999,-0.565237533570615,0.589363395752781
3.03749999999999,-0.381499119958493,0.390150719617957
3.04999999999999,-0.138241834162175,0.132876316497507
3.06249999999999,0.127721600930398,-0.143010518292308
3.07499999999999,0.375915912664901,-0.395528853720854
3.08749999999999,0.568269089381348,-0.586443944817533
3.09999999999999,0.675032050176856,-0.687146978461734
3.11249999999999,0.679335933978885,-0.682895029524771
3.12499999999999,0.579871146030455,-0.574984698679894
3.13749999999999,0.391179208543502,-0.38044503009557
3.14999999999999,0.141543754607823,-0.129369471377033
3.16249999999999,-0.131281506051971,0.13976403769544
3.17499999999999,-0.38573452131594,0.385960562133697
3.18749999999999,-0.582828146345658,0.571990591951519
3.19999999999999,-0.692085870245617,0.669979038700432
3.21249999999999,-0.696280246073833,0.6656213676603
3.22499999999999,-0.594138361387398,0.56024387003936
3.23749999999999,-0.400615183923008,0.370502445154879
3.24999999999999,-0.144747375441666,0.125776360109458
3.26249999999999,0.134751366634985,-0.136421266131537
3.27499999999999,0.395311724324259,-0.37615450897404
3.28749999999999,0.597014319075645,-0.557174848497491
3.29999999999999,0.708703757627258,-0.65239342012293
3.31249999999999,0.712788870450459,-0.647932419612493
3.32499999999999,0.608026974990126,-0.545150846157125
3.33749999999999,0.409804975528479,-0.360333115611155
3.34999999999999,0.1478609131496,-0.122101385744533
3.36249999999999,-0.138133375254038,0.132993921141063
3.37499999999999,-0.404642610642477,0.366116831427267
3.38749999999999,-0.61082853143419,0.54201009219972
3.39999999999999,-0.724877217624231,0.63439692311985
3.41249999999999,-0.728849240373159,0.629834601161776
3.42499999999999,-0.621538662908676,0.529715613585459
3.43749999999999,-0.418730815463942,0.34993052409457
3.44999999999999,-0.150887237920269,0.11835288634232
3.46249999999999,0.141437156594529,-0.129487994182839
3.47499999999999,0.413712040032203,-0.355838291696239
3.48749999999999,0.624262820605317,-0.52650868083903
3.49999999999999,0.740593940307533,-0.615998659186936
3.51249999999999,0.744450515422582,-0.611337696842808
3.52499999999999,0.634658481937468,-0.513945544928425
3.53749999999999,0.427391029014771,-0.339305777643367
3.54999999999999,0.15381712379638,-0.114527239176381
3.56249999999999,-0.144647663877064,0.125897444452659
3.57499999999999,-0.422528297966978,0.34534020693974
3.58749999999999,-0.637298761876778,0.510668665096277
3.59999999999999,-0.755842427321985,0.597209942822895
3.61249999999999,-0.759580852084436,0.592453573558892
3.62499999999999,-0.647372353136852,0.497844685414191
3.63749999999998,-0.435786757269616,0.328469571569255
3.64999999999998,-0.156639393736057,0.110625580417294
3.66249999999998,0.147762118838603,-0.122222614525389
3.67499999999998,0.431076667743178,-0.334623915294087
3.68749999999998,0.649929362477808,-0.494504506358841
3.69999999999998,0.770611208074854,-0.578042375457502
3.71249999999998,0.774227299187465,-0.573192553362559
3.72499999999998,0.659676420427153,-0.481432328592955
3.73749999999998,0.443900624081643,-0.317421306874428
3.74999999999998,0.159370558236674,-0.106658122796361
3.76249999999998,-0.150789630964111,0.11847465095062
3.77499999999998,-0.439345226997527,0.323690986078445
3.78749999999998,-0.662151079777615,0.4780297585567
3.79999999999998,-0.784888965101627,0.558508916718268
3.81249999999998,-0.788382613733831,0.553570173119242
3.82499999999998,-0.671565084449823,0.464718284023223
3.83749999999998,-0.451732985429187,0.306173405345826
3.84999999999998,-0.162001267162588,0.102625470595271
3.86249999999998,0.153721224667923,-0.114650388056111
3.87499999999998,0.44733618502911,-0.312557645676844
3.88749999999998,0.673951292193696,-0.461253500758571
3.89999999999998,0.79867324982476,-0.538625799222664
3.91249999999998,0.802041062001712,-0.533602531865534
3.92499999999998,0.683026842755328,-0.447710723401442
3.93749999999998,0.459288156751622,-0.294740198286877
3.94999999999998,0.16452633872712,-0.0985225033089723
3.96249999999999,-0.156547627510896,0.110751177511781
3.97499999999999,-0.455052258609524,0.301229360352243
3.98749999999999,-0.685325189977501,0.444187770231997
3.99999999999999,-0.811957325078036,0.518407649396515
4.01249999999999,-0.81519867887701,0.513301332482646
4.02499999999999,-0.694062972396629,0.430421467356378
4.03749999999999,-0.466551184392524,0.283118089900756
4.04999999999999,-0.166951786534284,0.0943639404767194
4.06249999999999,0.159282178899399,-0.106789198577823
4.07499999999999,0.462477370118947,-0.289710846891145
4.08749999999999,0.696274677786632,-0.426843970915711
4.09999999999999,0.824730396366652,-0.497860814413994
4.11249999999999,0.827841926237543,-0.492673834488285
4.12499999999999,0.704666867771454,-0.41286465913611
4.13749999999999,0.473516594866203,-0.271313125799193
4.14999999999999,0.169274989776518,-0.090144315194246
4.16249999999999,-0.161918544687898,0.102759218355172
4.17499999999999,-0.469612729532156,0.278008456618569
4.18749999999999,-0.706785293138248,0.409229523855186
4.19999999999999,-0.836983812264829,0.476998736370339
4.21249999999999,-0.839964914146562,0.471734609905635
4.22499999999999,-0.714818734444951,0.395041802856226
4.23749999999999,-0.480187086221835,0.259340047862803
4.24999999999999,-0.171482867188482,0.0858631688824186
4.26249999999999,0.164445728068642,-0.0986593146457962
4.27499999999999,0.476455973966861,-0.266133886880641
4.28749999999999,0.716844537412912,-0.391353358516408
4.29999999999999,0.848707363553449,-0.455833069996678
4.3125,0.851554439983907,-0.450496373296201
4.325,0.724517668868738,-0.376968701950427
4.3375,0.486552457950728,-0.247201931331962
4.35,0.173583623101802,-0.0815281810797057
4.3625,-0.166874430089223,0.094499150064658
4.375,-0.482991125699871,0.254084481430302
4.3875,-0.72645192411676,0.373232244368742
4.4,-0.859890711001489,0.434379312327392
4.4125,-0.862601945862545,0.428972898342104
4.425,-0.733760839307985,0.358659917660736
4.4375,-0.492602076835907,0.234906096414238
4.45,-0.175584346493117,0.0771477885919372
4.4625,0.169200613707917,-0.090281770468752
4.475,0.489218641134402,-0.241875607217351
4.4875,0.735599346066618,-0.354876092084848
4.5,0.870530608618068,-0.412653231719478
4.5125,0.873104970363516,-0.407181884375681
4.525,0.742539248364392,-0.340125440030473
4.5375,0.498349866240484,-0.222465242451083
4.55,0.177461709545039,-0.0727165110484543
4.5625,-0.171411656437489,0.0860022674557775
4.575,-0.495142383809788,0.229519072212727
4.5875,-0.744278229404571,0.336296593039011
4.6,-0.880623525888189,0.390671145681441
4.6125,-0.883060182916329,0.385136312541816
4.625,-0.750849753104987,0.32137981899075
4.6375,-0.50378817267851,0.209887998602248
4.65,-0.179231978208124,0.0682383905300461
4.66250000000001,0.173515976628532,-0.0816724944852474
4.67500000000001,0.500753692153101,-0.217019838481563
4.68750000000001,0.752496340460037,-0.317507893677985
4.70000000000001,0.890164078716058,-0.368442294451296
4.71250000000001,0.892461518050295,-0.362848312522307
4.72500000000001,0.75869129536786,-0.302429446187173
4.73750000000001,0.508903473318537,-0.197175514567965
4.75000000000001,0.180895284791938,-0.0637181846161971
4.76250000000001,-0.175521541616155,0.0772936075369332
4.77500000000001,-0.506044014176656,0.204378458977304
4.78750000000001,-0.760242169586155,0.298519481539927
4.80000000000001,-0.899143847200325,0.345979910269961
4.81250000000001,-0.901300576400195,0.340329599770007
4.82500000000001,-0.766053689527711,0.283287725560997
4.83750000000001,-0.513697976349131,0.184338023130111
4.85000000000001,-0.182439667183516,0.0591556607725017
4.86250000000001,0.177406906528224,-0.072863830602308
4.87500000000001,0.511026943233609,-0.191610740796141
4.88750000000001,0.767502876548322,-0.279338550617604
4.90000000000001,0.907555184223251,-0.323297887596843
4.91250000000001,0.909568624453376,-0.317594866939914
4.92500000000001,0.772926766859636,-0.26396397688058
4.93750000000001,0.518167086796311,-0.171382490807727
4.95000000000001,0.183865621170481,-0.0545572393909371
4.96250000000001,-0.179178498310952,0.0683854262513618
4.97500000000001,-0.515682364728676,0.178721234685896
4.98750000000001,-0.774277568210879,0.259981357941124
5.00000000000001,-0.915389669101992,0.300410555519232
5.01250000000002,-0.917257277976604,0.2946581270892
