"Time [ms]","InducedVoltage(Cos_Winding) [V]","InducedVoltage(Sin_Winding) [V]"
0,0.0016350802085915,1.11525057541888
0.0125,-0.0034476870145726,0.967875281096233
0.025,-0.00853045423773671,0.820499986773584
0.0375,-0.0109994963406937,0.548188696854941
0.05,-0.00982463887950432,0.192431232874446
0.0625,-0.00482779425884635,-0.192612433571222
0.075,0.00322247921024016,-0.548289052036888
0.0875,0.0127518172801467,-0.820446349272254
0.1,0.0216557742697496,-0.967647363854634
0.1125,0.027724274453962,-0.967494834127438
0.125,0.0291097064446251,-0.820030828938296
0.1375,0.0247466103399376,-0.547752791557032
0.15,0.0146472097030851,-0.192121136638436
0.1625,-1.41201815024488e-06,0.19267344742399
0.175,-0.0169755197588719,0.548042282415584
0.1875,-0.0333281816948846,0.819875373365998
0.2,-0.0459226874986615,0.96680848919353
0.2125,-0.051985835683163,0.966502639505048
0.225,-0.0496723101542957,0.819052664519646
0.2375,-0.0384808545035257,0.546958768642947
0.25,-0.01946283250596,0.191694443609525
0.2625,0.00483687290503883,-0.192616975455843
0.275,0.0307170920407351,-0.547447438015323
0.2875,0.0538858218769801,-0.81878947218358
0.3,0.0701620461103313,-0.965354631759221
0.3125,0.0762166250836192,-0.964896254460036
0.325,0.0702038498556272,-0.817550005676163
0.3375,0.0521897359507277,-0.545817344430063
0.35,0.0242665242084673,-0.191144251035783
0.3625,-0.00966599204640008,0.192440522271433
0.375,-0.0444401792359169,0.546504016835878
0.3875,-0.0744116886007767,0.817175712033626
0.4,-0.0943588753023491,0.96328760559561
0.4125,-0.100398681740759,0.962674501746043
0.425,-0.0906912016151995,0.815522423106394
0.4375,-0.0658667430974636,0.544331704598259
0.45,-0.0290531934186408,0.190462554366831
0.4625,0.0144910566844,-0.192128338493695
0.475,0.058138167809175,-0.545215732398917
0.4875,0.0948861764092997,-0.815042380939502
0.5,0.11849441911299,-0.960604733113703
0.5125,0.12451638668053,-0.959839508340257
0.525,0.111119660207431,-0.812975647301374
0.5375,0.0795001903293259,-0.542501227911369
0.55,0.0338225796306075,-0.189676826204815
0.5625,-0.0193069230658239,0.191708497334618
0.575,-0.0717969567025645,0.543576358204633
0.5875,-0.115302571822502,0.812393544623716
0.6,-0.142552365400081,0.957314810724161
0.6125,-0.148552774963057,0.956396547903055
0.625,-0.131479113367515,0.809923792950441
0.6375,-0.093081603370112,0.540322831610746
0.65,-0.0385681925966107,0.188768225290574
0.6625,0.0241105693318109,-0.191162373750891
0.675,0.0854082162072261,-0.541594005401968
0.6875,0.135642759341602,-0.809232886344161
0.7,0.166520139615201,-0.953422133377574
0.7125,0.172496718245003,-0.952356268369797
0.725,0.151751972620591,-0.806357507968244
0.7375,0.106606775430695,-0.537812528404571
0.75,0.0432916990463834,-0.18773624074882
0.7625,-0.0288958011715387,0.190491638488132
0.775,-0.0989674726980824,0.5392805075388
0.7875,-0.155899076756944,0.805558308232112
0.8,-0.190384814913916,0.948932092353926
0.812500000000001,-0.196333533590165,0.94771509712611
0.825000000000001,-0.171933144958159,0.802284450095934
0.837500000000001,-0.120066138514318,0.534960752778997
0.850000000000001,-0.0479877493393625,0.186584039402271
0.862500000000001,0.0336651265251043,-0.189702192810902
0.875000000000001,0.112463364835121,-0.536614413478401
0.887500000000001,0.176060212850132,-0.801386510627917
0.900000000000001,0.214131862446883,-0.943841223596173
0.912500000000001,0.220047732604023,-0.942474976383715
0.925000000000001,0.192007537679951,-0.797703436598464
0.937500000000001,0.133447519288537,-0.531762992249014
0.950000000000001,0.0526586842653106,-0.185324551338702
0.962500000000001,-0.0384154684605825,0.188801538564194
0.975000000000001,-0.125891749511533,0.533613125413361
0.987500000000001,-0.196110777237659,0.796701462048551
1,-0.237743478883078,0.938149831651259
1.0125,-0.243623762097146,0.936633266104604
1.025,-0.211960792576134,0.792613000227531
1.0375,-0.146747649239945,0.528236241474459
1.05,-0.0572871493058356,0.183932314986317
1.0625,0.0431395801157151,-0.187773403177219
1.075,0.139239970222235,-0.530275069193727
1.0875,0.216035339867831,-0.791505588692356
1.1,0.26120446332204,-0.931860762823398
1.1125,0.267043884073973,-0.930195712698677
1.125,0.231776035111859,-0.787017315356439
1.1375,0.159953139020482,-0.524367677488933
1.15,0.0618830401636009,-0.182429421191791
1.1625,-0.047836342404989,0.186625696510444
1.175,-0.152499195938924,0.526597679655587
1.1875,-0.235822887282523,0.785806770244132
1.2,-0.284497673052583,0.924979981420013
1.2125,-0.290293575412197,0.9231685864044
1.225,-0.251445268763125,0.7809267653555
1.2375,-0.173054672934255,0.520170352338302
1.25,-0.066438838037137,0.180812786586414
1.2625,0.0525051538415639,-0.185364949315984
1.275,0.165656286096809,-0.522579933360245
1.2875,0.255460904164863,-0.7796168017271
1.3,0.307610011408549,-0.917516807359082
1.3125,0.31335780863144,-0.915561316723026
1.325,0.270954044048809,-0.77434447620557
1.3375,0.186049529817755,-0.515647399805719
1.35,0.0709550819231656,-0.179082955251626
1.3625,-0.0571363896258246,0.183975747075298
1.375,-0.17871566773131,0.51824443023763
1.3875,-0.274935663609069,0.772935204748727
1.4,-0.330528743820929,0.909480767002979
1.4125,-0.336227123991861,0.907382100934958
1.425,-0.290292934098598,0.767271302459066
1.4375,-0.19892795688979,0.510805338957483
1.45,-0.0754250745842312,0.177240643230991
1.4625,0.0617327736026699,-0.182481936333975
1.475,0.191658862714786,-0.513578853191208
1.4875,0.294239513390143,-0.765767128519118
1.5,0.353241940273754,-0.900871468596422
1.5125,0.358885650784888,-0.898629117702439
1.525,0.309454182659139,-0.759725631656891
1.5375,0.211679773328021,-0.505629715010899
1.55,0.0798487809266399,-0.175286443728979
1.5625,-0.0662916009911248,0.180869393795447
1.575,-0.204485519369964,0.50859471021951
1.5875,-0.313359749573858,0.758117169359051
1.6,-0.375731518179493,0.891689635782273
1.6125,-0.381318704436499,0.889306592626926
1.625,-0.32841703005057,0.751692221006444
1.6375,-0.22429742508283,0.500136601957683
1.65,-0.0842202303120345,0.173217258779396
1.6625,0.0708073616825344,-0.179142850069896
1.675,0.217180526540782,-0.503285427151
1.6875,0.332280972257346,-0.749982201094799
1.7,0.397984529871494,-0.881942197091653
1.7125,0.403508342266735,-0.879418673293066
1.725,0.347169365502159,-0.743177771140979
1.7375,0.236774849437662,-0.494328855800129
1.75,0.0885353306885702,-0.171032144308545
1.7625,-0.0752795932890337,0.17729825935801
1.775,-0.229737602351934,0.497651403864051
1.7875,-0.350989812428885,0.741375350084826
1.8,-0.419980880295339,0.871632432274137
1.8125,-0.425440214656833,0.868972819903225
1.825,-0.365700505652357,0.734194537720875
1.8375,-0.249097363030336,0.488205513826113
1.85,-0.0928009002639165,0.168754926470907
1.8625,0.0797060373387604,-0.175350639389137
1.875,0.242147473605074,-0.491703443534155
1.8875,0.369474040373284,-0.732295632783964
1.9,0.441711432807487,-0.86077808322617
1.9125,0.447099508840922,-0.857979337391892
1.925,0.384002117003222,-0.724752562300198
1.9375,0.261262021310294,-0.481775111677558
1.95,0.0970037586043832,-0.166368581032238
1.9625,-0.0840795184645093,0.173286226233224
1.97499999999999,-0.254403871272871,0.485449507598212
1.98749999999999,-0.387722423408932,0.722756690388078
1.99999999999999,-0.463161593134418,0.849383169193691
2.01249999999999,-0.46847835124679,0.846449187369843
2.02499999999999,-0.402058979913908,0.714858369214838
2.03749999999999,-0.273265343094393,0.475047953198648
2.04999999999999,-0.101145163820816,0.163872425890776
2.06249999999999,0.0883952248926213,-0.171110120130574
2.07499999999999,0.266501260794248,-0.478895886943369
2.08749999999999,0.405730126422458,-0.71276672476859
2.09999999999999,0.484321226538264,-0.837455204813124
2.11249999999999,0.489562513693952,-0.83438739425454
2.12499999999999,0.419864571782355,-0.704511002082669
2.13749999999999,0.285098699429607,-0.468024427496471
2.14999999999999,0.105224651073832,-0.161273932114379
2.16249999999999,-0.0926614988330759,0.168832790023359
2.17499999999999,-0.278428011178476,0.472031909903861
2.18749999999999,-0.423483885091572,0.702332409677906
2.19999999999999,-0.505177041448931,0.824999647324138
2.21249999999999,-0.510341581784712,0.82180423524069
2.22499999999999,-0.4373989307939,0.693708228860769
2.23749999999999,-0.296751085720718,0.460705265105913
2.24999999999999,-0.109240620892522,0.158575600013029
2.26249999999999,0.0968700769015041,-0.16645064903783
2.27499999999999,0.290181422025607,-0.464871843346958
2.28749999999999,0.44096865156166,-0.691449707230459
2.29999999999999,0.525712069323727,-0.812021130554873
2.31249999999999,0.530794661695158,-0.808695886090181
2.32499999999999,0.454664988316898,-0.682480569651872
2.33749999999999,0.308204972272581,-0.453073681476895
2.34999999999999,0.113183682383486,-0.155782373954731
2.36249999999999,-0.10101457601798,0.163958816532457
2.37499999999999,-0.30175212456768,0.457421195414447
2.38749999999999,-0.458169549043849,0.680125488315977
2.39999999999999,-0.545912055657323,0.798527011859715
2.41249999999999,-0.550907073498497,0.795072677548048
2.42499999999999,-0.471636918098776,0.670819018756568
2.43749999999999,-0.319465651251158,0.445162862331111
2.44999999999999,-0.117052879993924,0.152880708099855
2.46249999999999,0.105091159966381,-0.161355792236653
2.47499999999999,0.313128291419117,-0.449678521206944
2.48749999999999,0.475080885204666,-0.668373479357949
2.49999999999999,0.565762186917583,-0.784527474852752
2.51249999999999,0.570669001418581,-0.780949388083366
2.52499999999999,0.488308435781997,-0.658732575562602
2.53749999999999,0.330532562024819,-0.436989362188019
2.54999999999999,0.120833024276226,-0.149864107872632
2.56249999999999,-0.109097179047591,0.158645468703406
2.57499999999999,-0.324301526594933,0.441651383540756
2.58749999999999,-0.49169067398304,0.656202860892846
2.59999999999999,-0.585253644542182,0.770035721488308
2.61249999999999,-0.590069570909939,0.766338487083974
2.62499999999999,-0.504669305098685,0.646232770678317
2.63749999999999,-0.341388129254876,0.428536140208701
2.64999999999999,-0.124563146088958,0.146788560666792
2.66249999999999,0.113054678789544,-0.155869403177975
2.67499999999999,0.335269237717867,-0.433340382522862
2.68749999999999,0.507988270743915,-0.64362087029352
2.69999999999999,0.604377964812777,-0.755065303527402
2.71249999999999,0.609100894050832,-0.751248882010134
2.72499999999999,0.520715994261227,-0.633328831198301
2.73749999999999,0.352025057494456,-0.419809779409555
2.74999999999999,0.128207816353989,-0.143613880927645
2.76249999999999,-0.116929392473302,0.152980570737145
2.77499999999999,-0.346031388071816,0.424770090446926
2.78749999999999,-0.523965772804206,0.630631319373847
2.79999999999999,-0.623123209522615,0.739619393872284
2.81249999999999,-0.627748232824379,0.735684653702063
2.82499999999999,-0.536436874674044,0.620028583220019
2.83749999999999,-0.362440307673805,0.410815664883136
2.84999999999999,-0.131769897980056,0.140342806883661
2.86249999999999,0.120722066355881,-0.149980740156779
2.87499999999999,0.356588331630091,-0.415944950206941
2.88749999999999,0.539610848243089,-0.617240814239499
2.89999999999999,0.641474067676657,-0.723705204933142
2.91249999999999,0.645998878224637,-0.719653816362345
2.92499999999999,0.551815245984549,-0.606332858295688
2.93749999999999,0.372627385596383,-0.401565101734911
2.94999999999999,0.135243780267813,-0.13697859309733
2.96249999999999,-0.124442881916119,0.146894124468909
2.97499999999999,-0.366898673086073,0.406831665011423
2.98749999999999,-0.554927475165407,0.60347534047457
2.99999999999999,-0.659416260660266,0.707329240383501
3.01249999999999,-0.663838447704536,0.703167017353576
3.02499999999999,-0.566839633320991,0.592249707697427
3.03749999999999,-0.382578842492752,0.392059861208573
3.04999999999999,-0.138632700055035,0.133527705852943
3.06249999999999,0.128089210198825,-0.143714346511156
3.07499999999999,0.376980688771418,-0.397464042050938
3.08749999999999,0.569880999275483,-0.589318507758843
3.09999999999999,0.676938726124442,-0.690507396601275
3.11249999999999,0.681254383947035,-0.686234754155583
3.12499999999999,0.581505205403449,-0.577793717826686
3.13749999999999,0.392282056662874,-0.382305839741497
3.14999999999999,0.141940110906586,-0.130001825331726
3.16249999999999,-0.131654991592896,0.140449227194398
3.17499999999999,-0.386823091354407,0.387848279022088
3.18749999999999,-0.584469410414998,0.574785061652459
3.19999999999999,-0.694034264353541,0.673253569994753
3.21249999999999,-0.698237940440087,0.668872060860162
3.22499999999999,-0.595805617637562,0.562977946883232
3.23749999999999,-0.401738470732789,0.372311181573095
3.24999999999999,-0.145152692254115,0.126390394401664
3.26249999999999,0.135131947792996,-0.137088255577981
3.27499999999999,0.396423282818753,-0.377991869978579
3.28749999999999,0.59868926105243,-0.559894571649694
3.29999999999999,0.710690230234087,-0.655576887276586
3.31249999999999,0.71478374234766,-0.651091319485193
3.32499999999999,0.609729791165519,-0.547811149882342
3.33749999999999,0.410947324791878,-0.362088095008267
3.34999999999999,0.148273172688052,-0.122696717886224
3.36249999999999,-0.138521449822554,0.13364367773949
3.37499999999999,-0.40577507989251,0.367901038447706
3.38749999999999,-0.612536227046499,0.544653460757314
3.39999999999999,-0.726901275063756,0.637489106083047
3.41249999999999,-0.730882376171808,0.632902862704491
3.42499999999999,-0.623271265264707,0.532295568544832
3.43749999999999,-0.419897476154305,0.351635448455577
3.44999999999999,-0.151303143304683,0.118926929528748
3.46249999999999,0.141831260624513,-0.130117430014221
3.47499999999999,0.414864693695861,-0.357571231133487
3.48749999999999,0.626002467179946,-0.529073447310142
3.49999999999999,0.742655840265987,-0.618998701499328
3.51249999999999,0.746522579834595,-0.614314981581324
3.52499999999999,0.636418417723436,-0.516443360742024
3.53749999999999,0.428579978856116,-0.340958430269837
3.54999999999999,0.154241748991458,-0.115083518164464
3.56249999999999,-0.145050660333215,0.126509638438239
3.57499999999999,-0.423702388620463,0.347020946101804
3.58749999999999,-0.639069173783307,0.513153948814701
3.59999999999999,-0.757940503538507,0.60011575812645
3.61249999999999,-0.761687444080481,0.595335159400349
3.62499999999999,-0.649166452921927,0.50026509250877
3.63749999999998,-0.436991824369159,0.330064406594606
3.64999999999998,-0.157072437800411,0.111164623849064
3.66249999999998,0.148175617874573,-0.122819192153682
3.67499999999998,0.432271007649865,-0.336250266616701
3.68749999999998,0.651728673680716,-0.496908561717089
3.69999999999998,0.772742860871025,-0.580851262544892
3.71249999999998,0.776367079679604,-0.575977249700763
3.72499999999998,0.661499334549957,-0.483771824442102
3.73749999999998,0.445123960966891,-0.318960702025787
3.74999999999998,0.159807746551269,-0.107174425299574
3.76249999999998,-0.15120822059795,0.119050462814631
3.77499999999998,-0.440560275156005,0.325264414929354
3.78749999999998,-0.663976958133695,0.480349702504585
3.79999999999998,-0.787052668765941,0.561219621898925
3.81249999999998,-0.790554808232801,0.556257282433376
3.82499999999998,-0.673413659057106,0.466972875438746
3.83749999999998,-0.452977309345752,0.307660942434495
3.84999999999998,-0.16244219436739,0.10312015308446
3.86249999999998,0.154146110509287,-0.115207858389878
3.87499999999998,0.448568046615872,-0.314073929545291
3.88749999999998,0.675804730257755,-0.463490588614888
3.89999999999998,0.800869084558491,-0.54123887747328
3.91249999999998,0.80424514864103,-0.536191170805648
3.92499999999998,0.684902583721904,-0.449882567845063
3.93749999999998,0.460547449767557,-0.296168915258339
3.94999999999998,0.164975989467554,-0.0989994119946503
3.96249999999999,-0.156978702955729,0.11128930355254
3.97499999999999,-0.456301286102159,0.302688912335068
3.98749999999999,-0.687206880219551,0.446342176897775
3.99999999999999,-0.814184303258338,0.520921673749651
4.01249999999999,-0.817433436904481,0.515790506827046
4.02499999999999,-0.695963994535055,0.43250870169993
4.03749999999999,-0.467828250754202,0.284490935015701
4.04999999999999,-0.167409096216316,0.0948222180638207
4.06249999999999,0.159720174023303,-0.107307758797704
4.07499999999999,0.463744924888435,-0.291115825497716
4.08749999999999,0.698181385133182,-0.428913619564928
4.09999999999999,0.826988295334815,-0.500275158329795
4.11249999999999,0.830106883974241,-0.495062661292259
4.12499999999999,0.706594575301767,-0.414867235961678
4.13749999999999,0.474811627581398,-0.272629372688139
4.14999999999999,0.169736164718858,-0.0905807697880978
4.16249999999999,-0.162361417030832,0.103256379760673
4.17499999999999,-0.470898922414696,0.279357455304051
4.18749999999999,-0.70871783816813,0.411214644506047
4.19999999999999,-0.839271074934309,0.479311560743831
4.21249999999999,-0.842259848177611,0.47402248629157
4.22499999999999,-0.716770884354139,0.396957809917937
4.23749999999999,-0.481497469722873,0.26059786892641
4.24999999999999,-0.171949816207444,0.0862800597193197
4.26249999999999,0.164896840886007,-0.0991389461556393
4.27499999999999,0.477757419699965,-0.267425228755131
4.28749999999999,0.71880093346294,-0.393250624431989
4.29999999999999,0.851022825412325,-0.45804342604861
4.3125,0.853876392702551,-0.452681171851235
4.325,0.726492407458841,-0.378797563814579
4.3375,0.487877162880335,-0.248400346322611
4.35,0.17405454803947,-0.0819229592282912
4.3625,-0.167330735278018,0.0949567097777302
4.375,-0.484307105748271,0.255315989115954
4.3875,-0.728430840116768,0.375042756018218
4.4,-0.862231830936318,0.436486586841751
4.4125,-0.864949427073772,0.431054304525798
4.425,-0.735756047662953,0.360399835383109
4.4375,-0.493940820898847,0.236045610077734
4.45,-0.176060955898727,0.0775241853191201
4.4625,0.169661266323483,-0.0907185978029245
4.475,0.490550115404228,-0.24304987122077
4.4875,0.737599025661357,-0.356598272462646
4.5,0.872896845170588,-0.414657194303745
4.5125,0.875476862045982,-0.409159254849832
4.525,0.744555911777309,-0.341777892550791
4.5375,0.499703614305619,-0.223547796529698
4.55,0.177942924063262,-0.0730707286105297
4.5625,-0.171878124509176,0.086419541614095
4.575,-0.496487361764378,0.230633808251275
4.5875,-0.746299871779221,0.337931720670528
4.6,-0.883013955165822,0.39257060249004
4.6125,-0.885456504825517,0.38700954428329
4.625,-0.752887415822166,0.322944314625251
4.6375,-0.505154052559823,0.2109103711087
4.65,-0.179718252897327,0.0685721703579276
4.66250000000001,0.17398781138515,-0.0820696133249336
4.67500000000001,0.502113021864307,-0.218076141019629
4.68750000000001,0.754537211031011,-0.319053643435226
4.70000000000001,0.892578182873031,-0.370237003028207
4.71250000000001,0.894881736740706,-0.364616995025083
4.72500000000001,0.760748191376313,-0.30390474679323
4.73750000000001,0.510283833616756,-0.198138402108131
4.75000000000001,0.181384983366759,-0.0640295877678947
4.76250000000001,-0.175997725674469,0.0776702910321293
4.77500000000001,-0.507415767383255,0.205373938823917
4.78750000000001,-0.762303092550373,0.299975911653185
4.80000000000001,-0.901582160541419,0.347669590617268
4.81250000000001,-0.903744634783544,0.341992846191736
4.82500000000001,-0.76813006316534,0.284673711674783
4.83750000000001,-0.515090008927659,0.18523944173133
4.85000000000001,-0.182934663874971,0.0594464212888195
4.86250000000001,0.177887014341699,-0.0732176235004164
4.87500000000001,0.512412690426036,-0.192547415545871
4.88750000000001,0.769584003286289,-0.280705826623902
4.90000000000001,0.910015663767563,-0.324881555594738
4.91250000000001,0.912034189608039,-0.319151670447559
4.92500000000001,0.775021431572498,-0.265258390513325
4.93750000000001,0.51957101060558,-0.172224260367044
4.95000000000001,0.18436411628498,-0.0548284567710965
4.96250000000001,-0.17966465526147,0.0687192790126395
4.97500000000001,-0.517079918481709,0.179597282905117
4.98750000000001,-0.77637621321079,0.26125862460815
5.00000000000001,-0.917869962188617,0.301887591950698
5.01250000000002,-0.919742196723313,0.296108172499995
