"Time [ms]","InducedVoltage(Cos_Winding) [V]","InducedVoltage(Sin_Winding) [V]"
0,-1.10963011106269,0.00215419554587325
0.0125,-0.962997578330029,-0.0029843491840032
0.025,-0.816365045597372,-0.00812289391387965
0.0375,-0.54542697835923,-0.0107132086386572
0.05,-0.191460505353945,-0.00970889427441703
0.0625,0.191642947103557,-0.0049059116811499
0.075,0.5455257723992,0.00295685082678599
0.0875,0.816311245110771,0.0123334164694691
0.1,0.962770144161209,0.0211449904248461
0.1125,0.962618583945451,0.0271975465194575
0.125,0.815898330865535,0.0286485207396854
0.1375,0.544990874971068,0.0244248992306027
0.15,0.191152111841196,0.0145189227372353
0.1625,-0.191701857704786,8.88992073108589e-05
0.175,-0.545280399643086,-0.0166739740341319
0.1875,-0.81574241866771,-0.032856298851311
0.2,-0.961935226743103,-0.0453485155784181
0.2125,-0.961631281729592,-0.0513957535493499
0.225,-0.814923692127825,-0.0491577545853382
0.2375,-0.544201810674903,-0.0381230333414234
0.25,-0.190728338254565,-0.0193216908003648
0.2625,0.191646209264895,0.00473365639900871
0.275,0.544687215183857,0.0303799576409584
0.2875,0.814662189031255,0.0533602217343516
0.3,0.960489510440161,0.0695243965888669
0.3125,0.960032754971249,0.075563463923244
0.325,0.813429826702516,0.0696352738156663
0.3375,0.543065984787823,0.0517964630230231
0.35,0.190181582170528,0.0241125930044625
0.3625,-0.191469070762773,-0.0095507582161304
0.375,-0.543750019429975,-0.0440667158837886
0.3875,-0.813057993996091,-0.0738320122490825
0.4,-0.958433065577466,-0.0936583075037586
0.4125,-0.957823362223792,-0.0996824222167017
0.425,-0.811413036148993,-0.0900694514057614
0.4375,-0.541590008403148,-0.0654372729563481
0.45,-0.189504190941399,-0.02888705324247
0.4625,0.191160657833533,0.0143627411168183
0.475,0.542468751593625,0.0577289658489966
0.4875,0.810935692985984,0.094253533429235
0.5,0.955765496430665,0.11773095956727
0.5125,0.955004473536276,0.123737277317921
0.525,0.808881658082338,0.110444476307691
0.5375,0.539769364973986,0.0790353712792979
0.55,0.188721526134404,0.0336443688204036
0.5625,-0.190742253026483,-0.0191662344854419
0.575,-0.540838160760545,-0.0713524114395577
0.5875,-0.80830229684529,-0.114616587549175
0.6,-0.95249431322059,-0.141726260391645
0.6125,-0.951581942943245,-0.147710804963672
0.625,-0.80584644815518,-0.130751035770211
0.6375,-0.537603161867037,-0.0925815846754699
0.65,-0.187819511768207,-0.0383768150545644
0.6625,0.19019975795781,0.0239571215376466
0.675,0.538867095391676,0.0849282363732617
0.6875,0.805159454321393,0.134903758000872
0.7,0.948624758181275,0.165631124749689
0.7125,0.947564662983293,0.171592090336258
0.725,0.802301131717641,0.15097063483865
0.7375,0.535107938833624,0.106071007257694
0.75,0.186792716986181,0.0430881708805237
0.7625,-0.189531515839595,-0.0287303845503502
0.775,-0.536566837026399,-0.0984516072741543
0.7875,-0.801507644326515,-0.155106767514488
0.8,-0.944160454446694,-0.189433144172375
0.812500000000001,-0.942950662044024,-0.195366142366005
0.825000000000001,-0.79825145705938,-0.1710986892449
0.837500000000001,-0.532272901098882,-0.119494733543696
0.850000000000001,-0.185648771788006,-0.0477715429185872
0.862500000000001,0.188748008962085,0.0334868783653622
0.875000000000001,0.533917767244806,0.111911788306121
0.887500000000001,0.797359098901974,0.175214819949213
0.900000000000001,0.939098917988055,0.213117621708696
0.912500000000001,0.937740552921268,0.219017918337953
0.925000000000001,0.793698006910477,0.191119835417749
0.937500000000001,0.529094342398098,0.132840667263885
0.950000000000001,0.184393843139151,0.0524307432332818
0.962500000000001,-0.187852875321893,-0.0382243966718607
0.975000000000001,-0.530932353307015,-0.125305371444367
0.987500000000001,-0.792701304200089,-0.195212351098699
1,-0.933440213644266,-0.236667045294497
1.0125,-0.931932971118984,-0.24253162541101
1.025,-0.788636367660952,-0.211020737944753
1.0375,-0.525586153573835,-0.146106423229253
1.05,-0.183010841763991,-0.0570467287225289
1.0625,0.186829804867002,0.0429364319592226
1.075,0.527614217010018,0.138618078356943
1.0875,0.787534691955909,0.21508480658162
1.1,0.927187621375299,0.260066198720803
1.1125,0.925532018961724,0.265890341275144
1.125,0.783072170727269,0.230784180660718
1.1375,0.521740853374868,0.159276824945732
1.15,0.181516143022674,0.0616306543233772
1.1625,-0.185688598162907,-0.0476210549879859
1.175,-0.52395696991659,-0.15184282988286
1.1875,-0.781869306539765,-0.23482000272796
1.2,-0.920346312559757,-0.28329811391634
1.2125,-0.918544880434938,-0.289078922424952
1.225,-0.7770167682889,-0.250401378577912
1.2375,-0.51756676444544,-0.172344138786661
1.25,-0.179910015380386,-0.0661740000432722
1.2625,0.184434427170084,0.0522777694764216
1.275,0.519964094754331,0.164964748985834
1.2875,0.775714634033166,0.254406257036937
1.3,0.912925273667002,0.306349664696495
1.3125,0.910980847335176,0.312082225866752
1.325,0.770471858131638,0.269858495851821
1.3375,0.513070726134458,0.185304028310673
1.35,0.17818925505157,0.0706784842642392
1.3625,-0.183055068343242,-0.0568961031151051
1.375,-0.515652426527246,-0.177989881944868
1.3875,-0.769070436321742,-0.273829679854513
1.4,-0.904934756535306,-0.329207569741596
1.4125,-0.902848124044658,-0.334890718220364
1.425,-0.76343938912807,-0.289146084585793
1.4375,-0.508254095909727,-0.198148424981976
1.45,-0.17635653830824,-0.0751367833912351
1.4625,0.181568131947846,0.0614806980121075
1.475,0.511013388001386,0.190898709531614
1.4875,0.761942743677746,0.293082306405007
1.5,0.896373884818938,0.351860297647482
1.5125,0.894144528265072,0.357488839403317
1.525,0.755934683787025,0.308256446241176
1.5375,0.503107954918914,0.210866290948971
1.55,0.174413895412902,0.0795482905576447
1.5625,-0.179965720699245,-0.0660270225881293
1.575,-0.506055887449981,-0.203691384586611
1.5875,-0.754335424460294,-0.312151698791776
1.6,-0.887244030829875,-0.374289761602643
1.6125,-0.884873298166255,-0.379862343844323
1.625,-0.747946490900156,-0.3271684872642
1.6375,-0.497644887456495,-0.223450482865021
1.65,-0.172355731274273,-0.0839080491545773
1.6625,0.178247563262257,0.0705313963918824
1.675,0.500776207481395,0.216352185797246
1.6875,0.746246315022237,0.331021904253349
1.7,0.87755032306525,0.396483877157006
1.7125,0.875039931743087,0.401992930517088
1.725,0.739478561788315,0.345871305433169
1.7375,0.491870149091363,0.23589443628574
1.75,0.170182431020474,0.0882119129878729
1.7625,-0.176414508319497,-0.0749913488297979
1.775,-0.495173534676762,-0.228875696096235
1.7875,-0.737685915438424,-0.349681651097668
1.8,-0.867297116242009,-0.418421889672097
1.8125,-0.864651353482182,-0.423866754626817
1.825,-0.730544610286753,-0.364352937047096
1.8375,-0.485779860698131,-0.24818448830659
1.85,-0.167917323110882,-0.092466636361837
1.8625,0.174477856896168,0.0794061073750566
1.875,0.489258083446585,0.24125321846339
1.8875,0.72865576699853,0.36811657442413
1.9,0.856501441243723,0.440094916601145
1.9125,0.853718152120268,0.445468496648276
1.925,0.721153281044155,0.382606167251862
1.9375,0.479383401273993,0.260317164746351
1.95,0.165544599586889,0.0966577273116205
1.9625,-0.172424889421096,-0.0837679058990149
1.97499999999999,-0.483038520475741,-0.253477147802812
1.98749999999999,-0.719168119799794,-0.386316739400182
1.99999999999999,-0.845167905336193,-0.461487763377319
2.01249999999999,-0.842250646877544,-0.466790450559682
2.02499999999999,-0.711311961667501,-0.400615227100273
2.03749999999999,-0.472691799890902,-0.272287962900656
2.04999999999999,-0.163061259873136,-0.100788420824324
2.06249999999999,0.170259177368293,0.0880725712482592
2.07499999999999,0.47652123733424,0.265542411592155
2.08749999999999,0.709231546702491,0.404276169352681
2.09999999999999,0.83330370788376,0.482590909764154
2.11249999999999,0.830253651024212,0.487818271156668
2.12499999999999,0.701020760619952,0.418373182572885
2.13749999999999,0.465705298463963,0.284089861872412
2.14999999999999,0.160475751425072,0.104856066781561
2.16249999999999,-0.167994309808502,-0.092327183875755
2.17499999999999,-0.469692607493709,-0.277436591313118
2.18749999999999,-0.698854050239012,-0.421982563471366
2.19999999999999,-0.820914494971309,-0.503391044295155
2.21249999999999,-0.817736801697389,-0.50854181794795
2.22499999999999,-0.690277284028712,-0.435860051886598
2.23749999999999,-0.458424634685972,-0.295711052362988
2.24999999999999,-0.157791110465766,-0.108862058438489
2.26249999999999,0.165626054182486,0.0965240026515804
2.27499999999999,0.462570231041417,0.289159181635469
2.28749999999999,0.688028914761865,0.439420496771377
2.29999999999999,0.808004631842157,0.523871300197796
2.31249999999999,0.804696995430743,0.528940118685675
2.32499999999999,0.67910858868045,0.453080328468325
2.33749999999999,0.450836836496836,0.307134834514567
2.34999999999999,0.155010407936519,0.112794849402592
2.36249999999999,-0.163148428265482,-0.100657701484849
2.37499999999999,-0.455159401937966,-0.300698737870434
2.38749999999999,-0.676763532660719,-0.456576115550263
2.39999999999999,-0.7945814666312,-0.544017576786432
2.41249999999999,-0.791144909563192,-0.548999400353332
2.42499999999999,-0.667506853270175,-0.470007585260274
2.43749999999999,-0.442968023772512,-0.318365708688647
2.44999999999999,-0.152125351370648,-0.116653701857729
2.46249999999999,0.160560343630934,0.104723465430046
2.47499999999999,0.447457850150686,0.312045103123676
2.48749999999999,0.665072652853749,0.473442554439815
2.49999999999999,0.780654292260406,0.563815273835155
2.51249999999999,0.777094762096779,0.568709310281663
2.52499999999999,0.655482219455638,0.486634874619805
2.53749999999999,0.434834861154395,0.329403212866104
2.54999999999999,0.14912902261048,0.120424348833261
2.56249999999999,-0.157865877091947,-0.108719899562321
2.57499999999999,-0.439472276125927,-0.323188298626565
2.58749999999999,-0.652965442722215,-0.490008169819042
2.59999999999999,-0.766237270296278,-0.583255379260029
2.61249999999999,-0.762559164101184,-0.588058458039049
2.62499999999999,-0.643046394240641,-0.502952689983109
2.63749999999999,-0.42642422227284,-0.340229580640781
2.64999999999999,-0.146067614752501,-0.124143851390878
2.66249999999999,0.155098700418295,0.11266597508421
2.67499999999999,0.431206524774783,0.334127368636634
2.68749999999999,0.640448362025492,0.506262403267668
2.69999999999999,0.751343809032017,0.602328833775663
2.71249999999999,0.747547086677909,0.607038969080896
2.72499999999999,0.630207972653761,0.518956963856084
2.73749999999999,0.417742513715148,0.350838354298765
2.74999999999999,0.142907610999126,0.127778422258844
2.76249999999999,-0.152223196105784,-0.116530437252852
2.77499999999999,-0.422678788522713,-0.344861016477542
2.78749999999999,-0.627526355456883,-0.522197362699032
2.79999999999999,-0.735976844843526,-0.621023893777397
2.81249999999999,-0.732062197453369,-0.625636769456144
2.82499999999999,-0.616976117238604,-0.534635258963818
2.83749999999999,-0.408793168719205,-0.361226301707222
2.84999999999999,-0.139653051826259,-0.131331169943516
2.86249999999999,0.149241227411389,0.120313637061975
2.87499999999999,0.413894235789636,0.355389162082377
2.88749999999999,0.614205216144559,0.537800976739762
2.89999999999999,0.720143856737843,0.639325724943092
2.91249999999999,0.716112252407345,0.643838915247065
2.92499999999999,0.603349625285202,0.549972675364665
2.93749999999999,0.399589593006549,0.371386233515554
2.94999999999999,0.136305262249059,0.134796669350809
2.96249999999999,-0.146170332444838,-0.124024479160457
2.97499999999999,-0.404829198091477,-0.36567277146966
2.98749999999999,-0.600506279779423,-0.553076612335828
2.99999999999999,-0.703850923478072,-0.657220631266623
3.01249999999999,-0.699708614898671,-0.661631331697486
3.02499999999999,-0.589336804124949,-0.564957860257892
3.03749999999999,-0.390132312090808,-0.38131072235776
3.04999999999999,-0.132871176151216,-0.138177413443942
3.06249999999999,0.143007213869559,0.127660649780681
3.07499999999999,0.395509769231434,0.375728697647329
3.08749999999999,0.586419273355315,0.567990863654177
3.09999999999999,0.687112651617285,0.674697117471078
3.11249999999999,0.682860558897545,0.679001230730886
3.12499999999999,0.574953534258472,0.579585350270563
3.13749999999999,0.380426400211997,0.390989125226171
3.14999999999999,0.12936207800377,0.14147456373477
3.16249999999999,-0.139758710657865,-0.131216443004606
3.17499999999999,-0.38594086797853,-0.385544793106084
3.18749999999999,-0.571959428962806,-0.582541595751259
3.19999999999999,-0.66994356458029,-0.691747438896119
3.21249999999999,-0.66558435856391,-0.695939987374407
3.22499999999999,-0.560210547211096,-0.593847868103508
3.23749999999999,-0.370480469660879,-0.400420928158209
3.24999999999999,-0.125769179598599,-0.14467849471698
3.26249999999999,0.136414289848799,0.134684723224902
3.27499999999999,0.376133619366388,0.395119113086386
3.28749999999999,0.557142077395956,0.596723884507645
3.29999999999999,0.652354569188414,0.708359558368928
3.31249999999999,0.647891354123923,0.712442170927855
3.32499999999999,0.545117776638704,0.607734398901253
3.33749999999999,0.360309142632137,0.409605817975236
3.34999999999999,0.122092893940809,0.147791205712786
3.36249999999999,-0.132986385920689,-0.138066091628996
3.37499999999999,-0.366092248261101,-0.404445757878054
3.38749999999999,-0.541976838502957,-0.6105339578644
3.39999999999999,-0.634355695415558,-0.724527786980757
3.41249999999999,-0.629791840411908,-0.728497877520875
3.42499999999999,-0.529679127434392,-0.621239927507925
3.43749999999999,-0.349906850236241,-0.41853137362932
3.44999999999999,-0.118343824424054,-0.150814158378636
3.46249999999999,0.129478228139732,0.141366784911658
3.47499999999999,0.355815320723407,0.413512445631753
3.48749999999999,0.526472659743471,0.6239638008278
3.49999999999999,0.615955434620786,0.74024030653711
3.51249999999999,0.611294290725074,0.744096172656213
3.52499999999999,0.513905258423662,0.634352545235626
3.53749999999999,0.339282889608948,0.427190127004392
3.54999999999999,0.114516766638392,0.153744667365661
3.56249999999999,-0.125889195685893,-0.144576834151398
3.57499999999999,-0.345314916245493,-0.422326581895786
3.58749999999999,-0.510630650977341,-0.636995994131796
3.59999999999999,-0.59716444320873,-0.75548410295416
3.61249999999999,-0.592407361194653,-0.759221018945179
3.62499999999999,-0.497804533259064,-0.647066065583285
3.63749999999998,-0.328439801946779,-0.435579694589216
3.64999999999998,-0.110616992339867,-0.156567627598641
3.66249999999998,0.12221443324229,0.147693140512265
3.67499999999998,0.334597113159815,0.430871733290573
3.68749999999998,0.494463924263566,0.64962228994049
3.69999999999998,0.577993218752932,0.770247243880533
3.71249999999998,0.573142680103972,0.773862093212054
3.72499999999998,0.481389435222926,0.65936657524187
3.73749999999998,0.317390173955833,0.443690359064753
3.74999999999998,0.106646512426796,0.159295353489049
3.76249999999998,-0.118464773917995,-0.15071779283197
3.77499999999998,-0.323662576884885,-0.439138846235179
3.78749999999998,-0.47798512320843,-0.661838165406116
3.79999999999998,-0.558456328376656,-0.784519577444155
3.81249999999998,-0.553516818393502,-0.788012499253387
3.82499999999998,-0.464672213667157,-0.671249729034365
3.83749999999998,-0.306142727256445,-0.451522845455545
3.84999999999998,-0.102611770857295,-0.161922433745193
3.86249999999998,0.114639234127873,0.153648076840123
3.87499999999998,0.312527375918203,0.447125544945093
3.88749999999998,0.46120677368997,0.673634414715438
3.89999999999998,0.538570147070093,0.798299471931528
3.91249999999998,0.533546294107915,0.801666360527368
3.92499999999998,0.447662485970551,0.682708283778524
3.93749999999998,0.294707293082488,0.459073117676947
3.94999999999998,0.0985103708870031,0.164449656491609
3.96249999999999,-0.11074200512395,-0.156473476032138
3.97499999999999,-0.301196505099574,-0.454838940276591
3.98749999999999,-0.444138636345297,-0.685006124652165
3.99999999999999,-0.518349298110481,-0.811578878456152
4.01249999999999,-0.513242315218062,-0.814819221784771
4.02499999999999,-0.4303717201677,-0.693739830754547
4.03749999999999,-0.283083720885012,-0.466334821959147
4.04999999999999,-0.0943511559666052,-0.16687614655141
4.06249999999999,0.106778452442507,0.159208078884518
4.07499999999999,0.289677334129216,0.462262397603804
4.08749999999999,0.426792950141543,0.695951350082071
4.09999999999999,0.497800176108061,0.824348195451494
4.11249999999999,0.492613035228178,0.827458226246264
4.12499999999999,0.412812321212446,0.704341656400652
4.13749999999999,0.271277802005228,0.473299152591694
4.14999999999999,0.0901313251717161,0.169196483786785
4.16249999999999,-0.102747409433067,-0.161842040835685
4.17499999999999,-0.277974068012347,-0.469396675123958
4.18749999999999,-0.409176948360378,-0.706459473505351
4.19999999999999,-0.476936058395629,-0.836597330532269
4.21249999999999,-0.47167115462607,-0.839578321737264
4.22499999999999,-0.394987366203331,-0.714490038496582
4.23749999999999,-0.259303021087715,-0.479966503645102
4.24999999999999,-0.0858497045282597,-0.171404802062451
4.26249999999999,0.0986477791711496,0.164371142352878
4.27499999999999,0.266098079558691,0.47623681574795
4.28749999999999,0.391298253103846,0.71651387167293
4.29999999999999,0.455767135145231,0.848317837167432
4.3125,0.450429608774857,0.851163254772679
4.325,0.376911488460101,0.724185584387875
4.3375,0.247162306077203,0.486328642462027
4.35,0.0815135645924512,0.173503166589857
4.3625,-0.094486419988306,-0.166797165076155
4.375,-0.254046461262025,-0.482768436473668
4.3875,-0.373174202150144,-0.726118584046961
4.4,-0.434309885037267,-0.859496463615834
4.4125,-0.428902501043769,-0.862206370947658
4.425,-0.358599346788741,-0.733423742075781
4.4375,-0.234864855546845,-0.492375682657075
4.45,-0.0771331033405025,-0.175505251481277
4.4625,0.09026819130962,0.169121774850212
4.475,0.241835776576678,0.488995060076841
4.4875,0.354815122442142,0.735261957822516
4.5,0.412580716873815,0.870132255438506
4.5125,0.407108577664827,0.872704904696467
4.525,0.340062379448499,0.742199385283222
4.5375,0.222422930422069,0.498123683852507
4.55,0.0727007283880217,0.1773808451426
4.5625,-0.0859883914328954,-0.171333194452553
4.575,-0.229477139083462,-0.494915410369536
4.5875,-0.336233394251143,-0.743939030714045
4.6,-0.390595691639764,-0.880221184465393
4.6125,-0.385060102470917,-0.882657723925803
4.625,-0.321314117418279,-0.750506508704219
4.6375,-0.209844528511969,-0.503558083789168
4.65,-0.0682223234720456,-0.179151500831543
4.66250000000001,0.0816582969432572,0.173437552439962
4.67500000000001,0.216975956616673,0.500525939756521
4.68750000000001,0.317442434497287,0.752152135573398
4.70000000000001,0.36836438424797,0.889758190531057
4.71250000000001,0.362769556784649,0.892055422456405
4.72500000000001,0.302362466699723,0.758346331742261
4.73750000000001,0.197129615226671,0.508671427863386
4.75000000000001,0.0637020796584226,0.180812600095279
4.76250000000001,-0.0772784104479188,-0.175442341369678
4.77500000000001,-0.204334049307444,-0.505811586842234
4.78750000000001,-0.298451808231515,-0.759895843110026
4.80000000000001,-0.345899450815196,-0.89873601188741
4.81250000000001,-0.340248463466689,-0.900891981671859
4.82500000000001,-0.283219171839357,-0.765706958195754
4.83750000000001,-0.184290892738754,-0.513463063283528
4.85000000000001,-0.0591379579516965,-0.182357386885549
4.86250000000001,0.0728481559602252,0.177323852771821
4.87500000000001,0.191564841215718,0.510795574461517
4.88750000000001,0.279268776831179,0.767155573096876
4.90000000000001,0.323214712369474,0.907144390778625
4.91250000000001,0.317510931885159,0.909156923417563
4.92500000000001,0.263891801880304,0.772575871166836
4.93750000000001,0.171333979092058,0.517936705886563
4.95000000000001,0.0545389955963704,0.183779350067854
4.96250000000001,-0.0683688952582579,-0.179097319479216
4.97500000000001,-0.178673479345887,-0.515448339624023
4.98750000000001,-0.259909228158803,-0.773927929266304
5.00000000000001,-0.300324106069269,-0.914975263240399
5.01250000000002,-0.294570826440208,-0.916841969583575
