"Time [ms]","InducedVoltage(Cos_Winding) [mV]","InducedVoltage(Sin_Winding) [mV]"
0,966.416615166399,554.962837258267
0.0125,836.277171105382,485.838066298278
0.025,706.137727044365,416.713295338288
0.0375,469.133968279537,282.999276287057
0.05,161.69994917426,104.501306088859
0.0625,-169.178326051602,-91.9131357561812
0.075,-473.105950336975,-276.319618674191
0.0875,-703.982288987291,-420.339404059372
0.1,-826.982251197404,-501.479786114771
0.1125,-823.818182785691,-506.654714116617
0.125,-695.450442808574,-434.28681049525
0.1375,-461.887042882601,-294.676508716138
0.15,-159.023268727459,-108.520094745997
0.1625,166.818747691126,96.1225568886604
0.175,466.020543021667,288.096787263981
0.1875,693.20772178446,437.859404409644
0.2,814.131925678147,522.059380104816
0.2125,810.838090427945,527.153194097365
0.225,684.330134477624,451.591486168408
0.2375,454.339031091322,306.164840589943
0.25,156.24812874559,112.473911796072
0.2625,-164.353390766766,-100.27820810542
0.275,-458.641022136716,-299.691011436961
0.2875,-681.996920407826,-455.105839332501
0.3,-800.764052371036,-542.308374418821
0.3125,-797.342641476953,-547.318782377112
0.325,-672.772127901534,-468.607403642037
0.3375,-446.503141473461,-317.457939208752
0.35,-153.371899698379,-116.355777764618
0.3625,161.788090009472,104.368782099134
0.375,450.968625339492,311.09480032036
0.3875,670.346020114882,472.061753745453
0.4,786.887076024928,562.214567469618
0.4125,783.339292706456,567.134848758502
0.425,660.78319335655,485.323599519004
0.4375,438.384252745847,328.550934404802
0.45,150.392217383041,120.158323185693
0.4625,-159.107953727045,-108.389104254661
0.475,-443.010166372458,-322.304501900634
0.4875,-658.27234617768,-488.713938735781
0.5,-772.50849081953,-581.760161665293
0.5125,-768.838219222056,-586.589042772913
0.525,-648.374933178914,-501.729545918313
0.5375,-429.990222627581,-339.434107787302
0.55,-147.329534085872,-123.892367258094
0.5625,156.338110308903,112.346070751297
0.575,434.768818047332,333.305437957986
0.5875,645.781491593635,505.058098359762
0.6,757.644490070373,600.935457357208
0.6125,753.852880223084,605.66943657545
0.625,635.563925004532,517.822614033532
0.6375,421.322092575241,350.099188843081
0.65,144.172442246802,127.544977273948
0.6625,-153.465567776497,-116.229934354874
0.675,-426.254756101901,-344.093924466866
0.6875,-632.886587537076,-521.080661383816
0.7,-742.304429504766,-619.731697254685
0.7125,-738.396759028838,-624.371108167616
0.725,-622.352433881117,-533.584736774711
0.7375,-412.394053369151,-360.54914955269
0.75,-140.920717464535,-131.117372500245
0.7625,150.495510254272,120.036161220111
0.775,417.478993073075,354.671213487144
0.7875,619.590269310318,536.774709399554
0.8,726.499191977737,638.14028362124
0.812500000000001,722.474908323864,642.680267945291
0.825000000000001,608.748261803046,549.014445487618
0.837500000000001,403.203942768785,370.771886002217
0.850000000000001,137.578877020646,134.60572895399
0.862500000000001,-147.430340358328,-123.768957101812
0.875000000000001,-408.432128173823,-365.018658873372
0.887500000000001,-605.909909886168,-552.137249908692
0.900000000000001,-710.233612331809,-656.147463280483
0.912500000000001,-706.096793699049,-660.584527735478
0.925000000000001,-594.757985968166,-564.097788383994
0.937500000000001,-393.754560613021,-380.755065871162
0.950000000000001,-134.155143892236,-138.018444706634
0.962500000000001,144.277460934421,127.429247068184
0.975000000000001,399.128847744995,375.140571137204
0.987500000000001,591.841685129546,567.148261189823
1,693.516491194317,673.737748076745
1.0125,689.267248540782,678.068865153213
1.025,580.388030595111,578.822574367316
1.0375,384.060156238292,390.503111783887
1.05,130.639824278657,141.328771139693
1.0625,-141.028936762363,-131.004336499
1.075,-389.573404226787,-385.024184649376
1.0875,-577.395411795784,-581.79565606311
1.1,-676.357507658942,-690.899146047623
1.1125,-672.000573092214,-695.120792514975
1.125,-565.650698718805,-593.175609017341
1.1375,-374.117422843589,-399.998439670429
1.15,-127.044538908932,-144.555386412757
1.1625,137.690098769225,134.495609284125
1.175,379.769509452339,394.661561728205
1.1875,562.582282640151,596.073147370633
1.2,658.771343495681,707.619910048688
1.2125,654.309740452853,711.730773858931
1.225,550.558110975311,607.154708827902
1.2375,363.943565007837,409.239897553526
1.25,123.370239498293,147.690116217888
1.2625,-134.266393034737,-137.905230623979
1.275,-369.723712286243,-404.041787844534
1.2875,-547.419274212219,-609.975346968261
1.3,-640.772277152502,-723.893131875926
1.3125,-636.210037396778,-727.890432103339
1.325,-535.120782173394,-620.749465561928
1.3375,-353.540787752021,-418.226312177377
1.35,-119.618638608427,-150.734035553687
1.3625,130.752514125509,141.220125966375
1.375,359.450118325701,413.176361465595
1.3875,531.913314294764,623.491113164279
1.4,622.374299934184,739.712645655232
1.4125,617.712890785393,743.595605604724
1.425,519.344460946383,633.952954214128
1.4375,342.919675095683,426.951411938031
1.45,115.792958684613,153.682457212135
1.4625,-127.164488910438,-144.451806110455
1.475,-348.950092140656,-422.046691836789
1.4875,-516.071960574642,-636.615839420076
1.5,-603.583444594645,-755.068092494366
1.5125,-598.825139278874,-758.832143633453
1.525,-503.247249858788,-646.764988201462
1.5375,-332.074946377059,-435.402773701995
1.55,-111.892804583785,-156.534535109012
1.5625,123.492589298622,147.591389901461
1.575,338.232701843149,430.657971160598
1.5875,499.905365221584,649.340589659407
1.6,584.409484445002,769.944490817144
1.6125,579.557674191041,773.589276217323
1.625,486.827595713832,659.162751464821
1.6375,321.022250765584,443.578550991481
1.65,107.919894831895,159.284417163741
1.6625,-119.745035342831,-150.636875885265
1.675,-327.299301297975,-438.992053551429
1.6875,-483.418738236777,-661.652754098001
1.7,-564.864341287963,-784.33331322944
1.7125,-559.9225593532,-787.853272247142
1.725,-470.097624247424,-671.138560752908
1.7375,-309.766193025924,-451.475125395079
1.75,-103.875020738425,-161.928720346928
1.7625,115.914983193504,153.586731338243
1.775,316.155069333193,447.045166094462
1.7875,466.629954075855,673.54422514829
1.8,544.961391425708,798.219557087283
1.8125,539.933858392126,801.615473097202
1.825,453.07243909518,682.68869607343
1.8375,298.316187909889,459.080686223152
1.85,99.7752281367562,164.480846643751
1.8625,-112.019436953378,-156.443168449542
1.875,-304.812926815307,-454.81369070998
1.8875,-449.545395356723,-685.005522358869
1.9,-524.719955024071,-811.603321476923
1.9125,-519.608246783063,-814.868577890639
1.925,-435.765551775943,-693.809907458747
1.9375,-286.679611511852,-466.396222354585
1.95,-95.6116468531093,-166.92598265635
1.9625,108.049539502449,159.196953381555
1.97499999999999,293.282276177884,462.296381875863
1.98749999999999,432.181820422711,696.03301473342
1.99999999999999,504.151421435729,824.474341326964
2.01249999999999,498.959162094505,827.610875459458
2.02499999999999,418.189045010468,704.493806383994
2.03749999999999,274.866108540915,473.423027193688
2.04999999999999,91.3849150159499,169.263747303992
2.06249999999999,-104.012757693968,-161.845249675205
2.07499999999999,-281.572050225176,-469.491990958953
2.08749999999999,-414.547090427538,-706.626284387183
2.09999999999999,-483.267332880859,-836.827932306598
2.11249999999999,-477.997250590787,-839.832271102756
2.12499999999999,-400.347278054346,-714.734737055666
2.13749999999999,-262.880289855188,-480.155058334088
2.14999999999999,-87.0999540807064,-171.49553684784
2.16249999999999,99.9115913964834,164.399385999662
2.17499999999999,269.678648029263,476.384158364065
2.18749999999999,396.655954398787,716.778720347199
2.19999999999999,462.078579320596,848.655339614008
2.21249999999999,456.735596920403,851.528665334266
2.22499999999999,382.249552735244,724.514573461508
2.23749999999999,250.728490699302,486.582162315468
2.24999999999999,82.7608026348346,173.623767054111
2.26249999999999,-95.7490523263234,-166.850945607746
2.27499999999999,-257.616770156737,-482.980078685919
2.28749999999999,-378.511017642485,-726.474302103776
2.29999999999999,-440.597603377969,-859.943842780251
2.31249999999999,-435.18300543017,-862.681132496551
2.32499999999999,-363.913934371027,-733.848130510141
2.33749999999999,-238.411489670575,-492.686031684748
2.34999999999999,-78.3731711495819,-175.638698335223
2.36249999999999,91.5238369797854,169.193770086614
2.37499999999999,245.393492532915,489.271338778673
2.38749999999999,360.126649885841,735.704133195521
2.39999999999999,418.837621738195,870.684751980846
2.41249999999999,413.355856879241,873.282046352276
2.42499999999999,345.350898759159,742.710405729148
2.43749999999999,225.946812919754,498.480652521965
2.44999999999999,73.9313990611771,177.538484119827
2.46249999999999,-87.2383749121335,-171.422943480032
2.47499999999999,-233.014635267636,-495.249308333388
2.48749999999999,-341.515918932227,-744.469015183616
2.49999999999999,-396.81603897138,-880.870322765009
2.51249999999999,-391.271188397423,-883.329691517454
2.52499999999999,-326.571609482245,-751.100414768305
2.53749999999999,-213.348371562315,-503.97310693934
2.54999999999999,-69.4406474757264,-179.308352517103
2.56249999999999,82.897520208181,173.53904632789
2.57499999999999,220.491840211196,500.909040096109
2.58749999999999,322.694242317703,752.763643268561
2.59999999999999,374.548214644749,890.499837086897
2.61249999999999,368.94526280697,892.820661657243
2.62499999999999,307.59017023328,759.015631772308
2.63749999999999,200.615267004231,509.143899629999
2.64999999999999,64.914044876937,180.997439407551
2.66249999999999,-78.5137233508285,-175.570764992897
2.67499999999999,-207.828661743953,-506.251729841947
2.68749999999999,-303.672826269175,-760.583179362271
2.69999999999999,-352.049533969362,-899.57195933029
2.71249999999999,-346.389701375835,-901.752808518422
2.72499999999999,-288.415540501188,-766.456324023459
2.73749999999999,-187.756339998464,-513.991225091922
2.74999999999999,-60.3468034273591,-182.564631677779
2.76249999999999,74.0790185594711,177.4806902947
2.77499999999999,195.04092841685,511.283078674928
2.78749999999999,284.459799479974,767.922498339686
2.79999999999999,329.32863925741,908.078723064525
2.81249999999999,323.615758108949,910.115749361092
2.82499999999999,269.060528209867,773.418043943067
2.83749999999999,174.77645928274,518.512188450386
2.84999999999999,55.739158409736,184.012767669395
2.86249999999999,-69.593367262655,-179.266504833219
2.87499999999999,-182.131849295692,-516.007132140301
2.88749999999999,-265.066795495272,-774.774877099393
2.89999999999999,-306.399892313841,-916.010236431129
2.91249999999999,-300.636328128419,-917.902773773745
2.92499999999999,-249.53486794041,-779.885206134759
2.93749999999999,-161.687585193919,-522.707046969682
2.94999999999999,-51.0950736913098,-185.33920675458
2.96249999999999,65.0657583511689,180.945531809192
2.97499999999999,169.10363653066,520.37916249313
2.98749999999999,245.508952536289,781.150790157443
2.99999999999999,283.275507891553,923.358750250925
3.01249999999999,277.467335559114,925.105749489281
3.02499999999999,229.851314180213,785.853181275109
3.03749999999999,148.495807541343,526.570784619438
3.04999999999999,46.4182357546829,186.547772805726
3.06249999999999,-60.4943834497423,-182.51186177379
3.07499999999999,-155.966636662568,-524.425427583096
3.08749999999999,-225.796419005365,-787.020143443167
3.09999999999999,-259.975254218511,-930.120056481747
3.11249999999999,-254.124780490165,-931.719776389595
3.12499999999999,-210.024471482283,-791.323546452085
3.13749999999999,-135.214012950097,-530.095768985966
3.14999999999999,-41.715861107754,-187.649122579462
3.16249999999999,55.8883509199534,183.966643057692
3.17499999999999,142.734499748445,528.140501928322
3.18749999999999,205.941575488621,792.385861199974
3.19999999999999,236.514700175968,936.295209314742
3.21249999999999,230.626325284365,937.744398838434
3.22499999999999,190.068332778993,796.29813586481
3.23749999999999,121.847683763683,533.287243694321
3.24999999999999,36.9882204025678,188.624817205405
3.26249999999999,-51.2455359868829,-185.296908383878
3.27499999999999,-129.415062883729,-531.524556079965
3.28749999999999,-185.961590513672,-797.253902636477
3.29999999999999,-212.908373092861,-941.879229611533
3.31249999999999,-206.984504824708,-943.180905948315
3.32499999999999,-169.996894887087,-800.771837909121
3.33749999999999,-108.406818289246,-536.149995900108
3.34999999999999,-32.2356490669077,-189.480524985113
3.36249999999999,46.573979344651,186.510277681812
3.37499999999999,116.016647334512,534.576066470365
3.38749999999999,165.864735237021,801.624025306352
3.39999999999999,189.168505396826,946.872896391335
3.41249999999999,183.213569831981,948.026766242104
3.42499999999999,149.814761780053,804.740049968573
3.43749999999999,94.896545825641,538.673722341786
3.44999999999999,27.4622989548124,190.220387636868
3.46249999999999,-41.8707121331188,-187.61244284114
3.47499999999999,-102.544326311759,-537.28417082709
3.48749999999999,-145.663863566355,-805.493953560755
3.49999999999999,-165.30827457094,-951.270360077483
3.51249999999999,-159.32609629287,-952.276491386751
3.52499999999999,-129.538434713204,-808.198973068483
3.53749999999999,-81.3261868216646,-540.854234579906
3.54999999999999,-22.6698512497234,-190.842781571595
3.56249999999999,37.1426536894216,188.595963113717
3.57499999999999,89.0053691365945,539.661594591322
3.58749999999999,125.369557859922,808.849982393234
3.59999999999999,141.342988581379,955.064941623666
3.61249999999999,135.336830821384,955.919412871354
3.62499999999999,109.179100405683,811.149856107553
3.63749999999998,67.7020595543755,542.690667619448
3.64999999999998,17.8672590420109,191.335269491503
3.66249999999998,-32.3903303977875,-189.456870916012
3.67499999999998,-75.4100014977984,-541.696082797779
3.68749999999998,-104.99659363807,-811.69063642871
3.69999999999998,-117.288324423669,-958.251617071757
3.71249999999998,-111.262821798235,-958.953396546779
3.72499999999998,-88.7547305221166,-813.583272948936
3.73749999999998,-54.0371657311436,-544.181785244262
3.74999999999998,-13.0497813967057,-191.708599640181
3.76249999999998,27.6158950553197,190.198440494113
3.77499999999998,61.7685950080167,543.381322872012
3.78749999999998,84.5574520609285,814.018261366526
3.79999999999998,93.1625574591266,960.82903077299
3.81249999999998,87.1215798289599,961.380354193053
3.82499999999998,68.2751492355003,815.502351384927
3.83749999999998,40.3422519093935,545.333073219321
3.84999999999998,8.22741686064673,191.962389053465
3.86249999999998,-22.824909761484,-190.820322864317
3.87499999999998,-48.0910565405274,-544.721970300124
3.88749999999998,-64.069263112851,-815.832086629403
3.89999999999998,-68.9811684969594,-962.803789187086
3.91249999999998,-62.929343899974,-963.20363268096
3.92499999999998,-47.7562279036502,-816.907184704912
3.93749999999998,-26.6220525940063,-546.143659542889
3.94999999999998,-3.39852042334517,-192.097682192386
3.96249999999999,18.0218490956268,191.316674355578
3.97499999999999,34.3818946660951,545.726075043338
3.98749999999999,43.5434020311918,817.132632310914
3.99999999999999,44.7589991045768,964.176778543213
4.01249999999999,38.6983686489682,964.425171444295
4.02499999999999,27.205621834232,817.800684350587
4.03749999999999,12.885530601226,546.61020241575
4.04999999999999,-1.42990926220546,192.115845053991
4.06249999999999,-13.208851483693,-191.699395198684
4.07499999999999,-20.654909424432,-546.386467949494
4.08749999999999,-22.9885570987249,-817.923029463405
4.09999999999999,-20.5072938360275,-964.943011787138
4.11249999999999,-14.4417436953686,-965.037972508235
4.12499999999999,-6.63787498625959,-818.186477144538
4.13749999999999,0.860928639787199,-546.728630523476
4.14999999999999,6.26054705627324,-192.010441774254
4.16249999999999,8.38572670643581,191.960786027391
4.17499999999999,6.91229315704837,546.70372753029
4.18749999999999,2.41846816381169,818.199323318929
4.19999999999999,-3.75834501898291,965.099686208056
4.21249999999999,-9.82568371961315,965.04402955305
4.22499999999999,-13.9342382925057,818.046356657121
4.23749999999999,-14.6062924681429,546.503666807488
4.24999999999999,-11.0858520159329,191.778147389453
4.26249999999999,-3.55871442808842,-192.098588262556
4.27499999999999,6.83348452755247,-546.677327788118
4.28749999999999,18.1545952652657,-817.951539407811
4.29999999999999,28.0227011657232,-964.644746081857
4.3125,34.0858573186933,-964.435417516505
4.325,34.4965085191993,-817.387161517233
4.3375,28.3425567935059,-545.931008144903
4.35,15.9056545886168,-191.42346576299
4.3625,-1.27439712584802,192.115794958846
4.375,-20.5781416002121,546.296670418916
4.3875,-38.7123282159768,817.18876031663
4.4,-52.2657103134085,963.575828381488
4.4125,-58.3214231769435,963.213732935934
4.425,-55.0357148391562,816.21262269682
4.4375,-42.0562404883812,545.007154779411
4.45,-20.7123119597592,190.960399554096
4.4625,6.1041537966809,-192.014672792525
4.475,34.3049055910551,-545.571412779986
4.4875,59.2440854211799,-815.908222947223
4.5,76.472545748193,-961.899602577998
4.5125,82.5162618831162,-961.385705356735
4.525,75.5367934286282,-814.524322463535
4.5375,55.7439321366443,-543.749638628081
4.55,25.5038596216638,-190.36499669667
4.5625,-10.9294200016835,191.785686056911
4.575,-48.0089582158639,544.506093465192
4.5875,-79.7341906530705,814.112366761749
4.6,-100.628278292521,959.620517991752
4.6125,-106.657668496217,958.955908525721
4.625,-95.9869865163827,812.324756397927
4.6375,-69.3966712256485,542.152787101666
4.65,-30.2813456633885,189.654148207305
4.66250000000001,15.745366666863,-191.438583212377
4.67500000000001,61.6797733194012,-543.1003251051
4.68750000000001,100.176033288418,-811.809211525813
4.70000000000001,124.72149877693,-956.739481513933
4.71250000000001,130.732493843055,-955.924932344043
4.72500000000001,116.380231114835,-809.615471473824
4.73750000000001,83.0052658407409,-540.210473118741
4.75000000000001,35.0431745831507,-188.826848147771
4.76250000000001,-20.5544739400445,190.978983282513
4.77500000000001,-75.3143534073408,541.344141274475
4.78750000000001,-120.555144134184,808.998052412834
4.80000000000001,-148.737194050702,953.256549240172
4.81250000000001,-154.727017801527,952.291690922539
4.82500000000001,-136.700126931483,806.39579993224
4.83750000000001,-96.5621041433118,537.925314140208
4.85000000000001,-39.7814306378441,187.877930296443
4.86250000000001,25.3488740619683,-190.389282021186
4.87500000000001,88.9040301188134,-539.259992399263
4.88750000000001,140.858613761557,-805.671832447239
4.90000000000001,172.659161777314,-949.169629541801
4.91250000000001,178.623470000407,-948.053891510177
4.92500000000001,156.935378459412,-802.659831010927
4.93750000000001,110.056267497454,-535.302859580782
4.95000000000001,44.4893210996396,-186.805209778469
4.96250000000001,-30.1266461871957,189.680507290886
4.97500000000001,-102.436035674783,536.82863867359
4.98750000000001,-161.071484972686,801.833984985285
5.00000000000001,-196.470270427696,944.478662049854
5.01250000000002,-202.404445538442,943.211831835925
5.02500000000002,-177.065297891793,798.420234624991
5.03750000000002,-123.480462381481,532.333978293986
5.05000000000002,-49.172510197816,185.617137292377
5.06250000000002,34.8878786449084,-188.85437151803
5.07500000000002,115.899185382523,-534.051688981565
5.08750000000002,181.18202861196,-797.490078055518
5.10000000000002,220.153623630587,-939.187044597907
5.11250000000002,226.053775635531,-937.773801517422
5.12500000000002,197.083520118456,-793.674799802649
5.13750000000002,136.824936280378,-529.033271206364
5.15000000000002,53.8222851824484,-184.31364881069
5.16250000000002,-39.6255469821887,187.907241377298
5.17500000000002,-129.288535066842,530.940458716558
5.18750000000002,-201.173782393527,792.639246760401
5.20000000000002,-243.696653035132,933.308575588594
5.21250000000002,-249.558325563831,931.747296950682
5.22500000000002,-216.973426092343,788.428524154987
5.23750000000002,-150.084125557465,525.404462697152
