"Time [ms]","InducedVoltage(Cos_Winding) [V]","InducedVoltage(Sin_Winding) [V]"
0,0.0020665511707261,1.11139264337605
0.0125,-0.00306451663304045,0.964526796383194
0.025,-0.008195584436807,0.817660949390338
0.0375,-0.0107662994748778,0.54629254794513
0.05,-0.00973218865132009,0.19176456301773
0.0625,-0.00489421379267624,-0.191945909149654
0.075,0.00300327420872397,-0.546392132840291
0.0875,0.012409450004923,-0.817607603680687
0.1,0.0212400788036968,-0.964299212201013
0.1125,0.0272977176057609,-0.964147141929711
0.125,0.0287379829736558,-0.817194094093666
0.1375,0.0244890408414039,-0.545856799374066
0.15,0.0145462310852121,-0.191456715943641
0.1625,7.34486271810968e-05,0.192007038164777
0.175,-0.0167315388036974,0.546145702408523
0.1875,-0.0329491507338639,0.817038715534505
0.2,-0.0454637316244492,0.963463296369859
0.2125,-0.0515160464780439,0.963158654731079
0.225,-0.0492642278178637,0.816219137318322
0.2375,-0.0381986912714255,0.545066629025331
0.25,-0.0193531853526892,0.191031525172531
0.2625,0.00475319098487262,-0.191950218725891
0.275,0.0304489004740896,-0.54555372366667
0.2875,0.0534700948376635,-0.815956541722216
0.3,0.0696599647086297,-0.962015463266996
0.3125,0.0757038949877865,-0.961558991475708
0.325,0.069759221691713,-0.814722335568532
0.3375,0.0518833683219101,-0.543930537822757
0.35,0.0241483742699269,-0.190483356089392
0.3625,-0.0095735835100835,0.19177433480365
0.375,-0.0441475391290307,0.544614125879849
0.3875,-0.0739596793263377,0.814349637400565
0.4,-0.0938140573912288,0.959957124007314
0.4125,-0.0998431553332748,0.959346658760475
0.425,-0.0902104486406207,0.812703886832225
0.4375,-0.0655362332248531,0.542450599914581
0.45,-0.0289267660091442,0.189806031329345
0.4625,0.0143905915072997,-0.19146442970184
0.475,0.057821240855744,-0.543330846963215
0.4875,0.094397931983696,-0.81222604123577
0.5,0.117906839003492,-0.957285860065936
0.5125,0.123918134507322,-0.956524021617962
0.525,0.110602685269302,-0.810168665529292
0.5375,0.0791451434313489,-0.540628104480979
0.55,0.0336873035829287,-0.189022951226802
0.5625,-0.0191976793761273,0.191045540462186
0.575,-0.0714558104645096,0.541698969997238
0.5875,-0.114777964739829,0.809588671365395
0.6,-0.141921812352298,0.954010562160293
0.6125,-0.147911527002905,0.95309663322786
0.625,-0.130925425375399,0.807129409815842
0.6375,-0.0927023117006796,0.538460018239222
0.65,-0.0384243535965814,0.188117834448815
0.6625,0.0239927602453874,-0.190501537266925
0.675,0.0850427286170938,-0.539725581526228
0.6875,0.135081597620712,-0.806441770754258
0.7,0.165846531390985,-0.950135007303005
0.7125,0.171812445565569,-0.949073587964229
0.725,0.151161865053426,-0.803579009846671
0.7375,0.106203052197914,-0.535960184839221
0.75,0.0431395282389538,-0.187090719751016
0.7625,-0.0287695715126208,0.18983430499588
0.775,-0.0985775908069284,0.537420883671021
0.7875,-0.155301426482031,0.802784153291282
0.8,-0.189668302453504,0.945664161561793
0.812500000000001,-0.1956064180866,0.944452374449036
0.825000000000001,-0.171306982825324,0.799523591476732
0.837500000000001,-0.11963824926046,0.533120636616192
0.850000000000001,-0.0478268246173664,0.185944028023497
0.862500000000001,0.033530053121857,-0.189048614469103
0.875000000000001,0.112049023309188,-0.534767233446149
0.887500000000001,0.175426543223055,-0.79862942034076
0.900000000000001,0.213372855391391,-0.940595363418375
0.912500000000001,0.219278199765866,-0.939234985548491
0.925000000000001,0.191345200237728,-0.79496201754289
0.937500000000001,0.132995833846441,-0.529937629401762
0.950000000000001,0.0524898702701298,-0.184688600318384
0.962500000000001,-0.0382717785000339,0.18815079900318
0.975000000000001,-0.125453647731917,0.53177938053181
0.987500000000001,-0.195441285885115,0.793964371391037
1,-0.236942392260027,0.934928682994383
1.0125,-0.242812231691057,0.933418535310138
1.025,-0.211263197769151,0.789893704094648
1.0375,-0.146272440700947,0.526425650781887
1.05,-0.0571099522946396,0.183303312181463
1.0625,0.0429876726720483,-0.18712774933131
1.075,0.138777969558882,-0.528455218437465
1.0875,0.215330456614278,-0.78879154474111
1.1,0.260361723921888,-0.928666690953127
1.1125,0.266190716578508,-0.927008853545164
1.125,0.23104322143056,-0.784322626937008
1.1375,0.159454363246745,-0.522573331025958
1.15,0.061697682625368,-0.181807082979459
1.1625,-0.0476761413521654,0.185985008277573
1.175,-0.152013686114445,0.524793565414932
1.1875,-0.23508284097352,0.78311748628466
1.2,-0.283613315752892,0.92181583560604
1.2125,-0.289398767491747,0.9200122949651
1.225,-0.25067707937493,0.778258200031083
1.2375,-0.172532328528423,0.518394452973724
1.25,-0.0662450276363222,0.18019683190625
1.2625,0.0523363798557653,-0.184728293997418
1.275,0.165147450038695,-0.520794761850235
1.2875,0.254685390696548,-0.776953802680014
1.3,0.306683982807622,-0.91438492242519
1.3125,0.312421414216692,-0.912437773941412
1.325,0.270150632742925,-0.771704095838184
1.3375,0.185503741371665,-0.513890715560914
1.35,0.0707528156251931,-0.178474338150311
1.3625,-0.0569595884059836,0.183346538208507
1.375,-0.178182723346717,0.516476597327464
1.3875,-0.274124955120722,0.770300902961192
1.4,-0.32956133744784,0.90638288606833
1.4125,-0.335249396264137,0.904293024697199
1.425,-0.289454995202771,0.76466176005631
1.4375,-0.198358485691294,0.509067914438644
1.45,-0.0752149502762391,0.176640106597295
1.4625,0.0615481085790622,-0.181858990874382
1.475,0.191102367232634,-0.511830779680586
1.4875,0.293393761843796,-0.763163142389508
1.5,0.352233590196512,-0.897809893902125
1.5125,0.35786720479067,-0.89557698383766
1.525,0.308581306060456,-0.757146948086849
1.5375,0.211087942510747,-0.50391520640783
1.55,0.0796308392114254,-0.174693604685672
1.5625,-0.0660985735747,0.18025321954807
1.575,-0.203906738635995,0.506867763933758
1.5875,-0.312479112823282,0.755544799481616
1.6,-0.374682867957749,0.888666961113128
1.6125,-0.380260103215362,0.886293733322053
1.625,-0.327510216818202,0.749147019698315
1.6375,-0.223683014013672,0.498445492825956
1.65,-0.0839947250763488,0.172633312034182
1.6625,0.0706056234500034,-0.178534838376559
1.675,0.216579049016201,-0.501579994075355
1.6875,0.331367445243359,-0.747444325940825
1.7,0.396895941883862,-0.878960400523277
1.7125,0.402410110908957,-0.876447113461131
1.725,0.346229310280232,-0.74066860740384
1.7375,0.236138211131368,-0.492661056329305
1.75,0.0883031587575007,-0.170457888973607
1.7625,-0.0750709901164854,0.176697598373614
1.775,-0.229113697405856,0.495970144838551
1.7875,-0.350043016329942,0.738872991003744
1.8,-0.418853087696063,0.868693932986405
1.8125,-0.424302805944623,0.86604471971725
1.825,-0.364727577358505,0.731722673648253
1.8375,-0.24843857062795,0.48656358923495
1.85,-0.0925596451517214,0.168189600407495
1.8625,0.0794885858940578,-0.174757539205093
1.875,0.241501225376735,-0.490047400651163
1.8875,0.368494124541993,-0.729831482043868
1.9,0.440544663792172,-0.85788416211707
1.9125,0.445923309439421,-0.855097044899145
1.925,0.382995672889448,-0.722319376592791
1.9375,0.260581273592119,-0.480160208690492
1.95,0.0967550417381841,-0.165812413462449
1.9625,-0.0838542881183483,0.172701732015299
1.97499999999999,-0.25373558575661,0.483819006529074
1.98749999999999,-0.386709429088215,0.720332408008821
1.99999999999999,-0.461955995217299,0.846535898101118
2.01249999999999,-0.467263556257317,0.843614703283008
2.02499999999999,-0.40102008032351,0.712464842058896
2.03749999999999,-0.272562535854467,0.473460016395812
2.04999999999999,-0.100889300174908,0.163326928391477
2.06249999999999,0.0881623292372082,-0.170535514460531
2.07499999999999,0.265811258239359,-0.477291750631126
2.08749999999999,0.404684437785943,-0.710382582917847
2.09999999999999,0.483077447918554,-0.83465664310284
2.11249999999999,0.488309530713213,-0.831602220329767
2.12499999999999,0.418793816168304,-0.702159797253151
2.13749999999999,0.284374982521319,-0.466463774246489
2.14999999999999,0.104960986063493,-0.16073892445133
2.16249999999999,-0.092420907910755,0.168266802890943
2.17499999999999,-0.277716003016977,0.470455867835258
2.18749999999999,-0.422406381657631,0.699990468173813
2.19999999999999,-0.503896023451124,0.822251578363479
2.21249999999999,-0.509051254594854,0.819068933701177
2.22499999999999,-0.436296530145499,0.691403365746423
2.23749999999999,-0.296006656228328,0.459172449912398
2.24999999999999,-0.108970206342629,0.158051414354872
2.26249999999999,0.0966214699848708,-0.165893763079803
2.27499999999999,0.289448754454517,-0.463325533587673
2.28749999999999,0.439859950782149,-0.689151602821857
2.29999999999999,0.524394472708026,-0.809325265176308
2.31249999999999,0.529467880221752,-0.806013121129777
2.32499999999999,0.453532362644747,-0.680219613886994
2.33749999999999,0.307441000627175,-0.451575806700564
2.34999999999999,0.112905666725891,-0.155266322297426
2.36249999999999,-0.100759206039442,0.163412223264574
2.37499999999999,-0.30099856878011,0.45590419767099
2.38749999999999,-0.457030391766427,0.677873519607032
2.39999999999999,-0.544558744252178,0.795884924423184
2.41249999999999,-0.549544686673103,0.792444815689223
2.42499999999999,-0.470474193502348,0.668603858219016
2.43749999999999,-0.318681900466494,0.443697998500693
2.44999999999999,-0.116768441591437,0.152376712912951
2.46249999999999,0.104828818111361,-0.160821837884651
2.47499999999999,0.312355163493866,-0.448192190617345
2.48749999999999,0.473911792283835,-0.666168019750253
2.49999999999999,0.564373449010664,-0.781941337990166
2.51249999999999,0.569271559692258,-0.778377853865535
2.52499999999999,0.487115530613167,-0.65656544410652
2.53749999999999,0.329728342853815,-0.435554037605121
2.54999999999999,0.120543123433219,-0.149379507563725
2.56249999999999,-0.108828372346253,0.158127008124518
2.57499999999999,-0.323508353601609,0.44019705535354
2.58749999999999,-0.490491741359443,0.654045452732907
2.59999999999999,-0.583830089951406,0.767507327850341
2.61249999999999,-0.588637349150074,0.763824541513087
2.62499999999999,-0.503447102155183,0.644115304289663
2.63749999999999,-0.340563769244966,0.42713299323675
2.64999999999999,-0.124266079292271,0.146311837992489
2.66249999999999,0.112776666836181,-0.155353856794049
2.67499999999999,0.334457378393642,-0.43192215368264
2.68749999999999,0.506760376211141,-0.641513076471785
2.69999999999999,0.60291987911257,-0.752595590966953
2.71249999999999,0.607634431674264,-0.748793823186542
2.72499999999999,0.519464723089109,-0.631261491525622
2.73749999999999,0.351182184400194,-0.418441648397936
2.74999999999999,0.127903998085939,-0.143147779333414
2.76249999999999,-0.11664474920644,0.152475308067998
2.77499999999999,-0.34519952676291,0.423384271416931
2.78749999999999,-0.522709419436566,0.628575391580094
2.79999999999999,-0.62163164255521,0.737209772262469
2.81249999999999,-0.626248386328466,0.733290358601444
2.82499999999999,-0.535158067675909,0.618012755753917
2.83749999999999,-0.361578877794631,0.409482991422053
2.84999999999999,-0.131459165609864,0.139889351356478
2.86249999999999,0.120430909352303,-0.149490711840279
2.87499999999999,0.355736582336146,-0.414588210860527
2.88749999999999,0.538327257338921,-0.615239169140535
2.89999999999999,0.639949749136173,-0.721357366139134
2.91249999999999,0.644466863164779,-0.717321954326827
2.92499999999999,0.550509084810739,-0.604369947254524
2.93749999999999,0.371747876915475,-0.400267763452501
2.94999999999999,0.13492723493133,-0.136538880100705
2.96249999999999,-0.124145546135306,0.146416605930548
2.97499999999999,-0.366028600890443,0.405513655515614
2.98749999999999,-0.553615592383285,0.60152326237861
2.99999999999999,-0.657861321166707,0.705045022156754
3.01249999999999,-0.662274952161279,0.700898682416077
3.02499999999999,-0.565507269024522,0.590341731163736
3.03749999999999,-0.38168186151857,0.390798306166084
3.04999999999999,-0.138309792909796,0.133101356788917
3.06249999999999,0.127784809307519,-0.143248936264386
3.07499999999999,0.376093140813098,-0.396182605892778
3.08749999999999,0.568542953242204,-0.587420660699292
3.09999999999999,0.675352973045359,-0.688287874488314
3.11249999999999,0.679660300129897,-0.684031448262621
3.12499999999999,0.580146671377274,-0.575941379407239
3.13749999999999,0.391367902425166,-0.381082125081618
3.14999999999999,0.141611874171302,-0.12958766860666
3.16249999999999,-0.13134466910228,0.139995171729743
3.17499999999999,-0.385918662629064,0.386603832790346
3.18749999999999,-0.583105768168686,0.572943962717123
3.19999999999999,-0.692417648997572,0.671099654929678
3.21249999999999,-0.696613588398409,0.666735334125764
3.22499999999999,-0.594421601012079,0.561181662681788
3.23749999999999,-0.400807578188137,0.371126107449474
3.24999999999999,-0.144818232502738,0.125990041224316
3.26249999999999,0.134815473719422,-0.136647824786448
3.27499999999999,0.395501463047497,-0.376784678650735
3.28749999999999,0.597300373960673,-0.558110367279704
3.29999999999999,0.709043690206337,-0.653490275530297
3.31249999999999,0.713129730346994,-0.649021852363926
3.32499999999999,0.608320712560028,-0.546072171430108
3.33749999999999,0.410000035283918,-0.360941364688822
3.34999999999999,0.147933337088168,-0.122310875381971
3.36249999999999,-0.138199409722743,0.13321698928966
3.37499999999999,-0.404836114693628,0.366731331666455
3.38749999999999,-0.611122548148846,0.542927086992306
3.39999999999999,-0.725225743547007,0.635470856681918
3.41249999999999,-0.729199458026466,0.630901745703313
3.42499999999999,-0.621837959069713,0.530615046300056
3.43749999999999,-0.4189340233529,0.350527832026649
3.44999999999999,-0.150958494379638,0.118555646744595
3.46249999999999,0.141502928302275,-0.129703399899002
3.47499999999999,0.413910494863016,-0.356442120890641
3.48749999999999,0.624564235088434,-0.527404832984101
3.49999999999999,0.740952277446638,-0.617049917723186
3.51249999999999,0.744811796548211,-0.612383412623407
3.52499999999999,0.634961775618604,-0.514822398668977
3.53749999999999,0.427601033624426,-0.339891116015083
3.54999999999999,0.153891691062948,-0.114725750716225
3.56249999999999,-0.144716155503824,0.1261090770919
3.57499999999999,-0.42273229458874,0.345930952706213
3.58749999999999,-0.637608077803957,0.511545194425553
3.59999999999999,-0.756209769829041,0.59823745452262
3.61249999999999,-0.759950083222342,0.593474598701701
3.62499999999999,-0.647687582900531,0.498704498877365
3.63749999999998,-0.435997294376317,0.329036773975943
3.64999999999998,-0.156717651814951,0.110821984572988
3.66249999999998,0.147835578285532,-0.12243267911746
3.67499999999998,0.431285545785939,-0.335199901414001
3.68749999999998,0.650245396376099,-0.49536064091279
3.69999999999998,0.770986092774049,-0.579044635363095
3.71249999999998,0.774603968894483,-0.574188849897476
3.72499999999998,0.65999835765299,-0.482272243496585
3.73749999999998,0.444115261039483,-0.317974419978623
3.74999999999998,0.159447560575473,-0.106846157410587
3.76249999999998,-0.150862549943559,0.118677717300699
3.77499999999998,-0.439559754308013,0.324254796573514
3.78749999999998,-0.66247197000282,0.478862898131359
3.79999999999998,-0.78527087481575,0.559486259457726
3.81249999999998,-0.788766309305262,0.554541952984365
3.82499999999998,-0.671891635046775,0.465535533066442
3.83749999999998,-0.451954273065714,0.306716346858497
3.84999999999998,-0.162076263230203,0.102806284954904
3.86249999999998,0.153794358621154,-0.114848595720947
3.87499999999998,0.44755370918171,-0.313106475730669
3.88749999999998,0.674278469466867,-0.462066194283337
3.89999999999998,0.799061944318634,-0.539578852762742
3.91249999999998,0.802431699093324,-0.53454952958839
3.92499999999998,0.683359429823506,-0.44850799435754
3.93749999999998,0.459510855657265,-0.295266457939058
3.94999999999998,0.164606452528411,-0.0987014471112577
3.96249999999999,-0.156623802590397,0.110946395271378
3.97499999999999,-0.455271953583044,0.301762821989685
3.98749999999999,-0.685660012120824,0.444980537735603
3.99999999999999,-0.812352669749715,0.519335674632576
4.01249999999999,-0.815595911559102,0.514223163581801
4.02499999999999,-0.694400713496766,0.431197820006666
4.03749999999999,-0.466777907777577,0.283630745530277
4.04999999999999,-0.167035148669197,0.0945386315480624
4.06249999999999,0.15935986543173,-0.106978912185391
4.07499999999999,0.462702475027188,-0.290231919647579
4.08749999999999,0.696613840173391,-0.427615314700436
4.09999999999999,0.825133501843087,-0.498764214717454
4.11249999999999,0.828246191046551,-0.493570928888769
4.12499999999999,0.705011666139612,-0.413619532984613
4.13749999999999,0.473749305430845,-0.27181265585493
4.14999999999999,0.169357120401351,-0.0903124311819832
4.16249999999999,-0.161995779414396,0.102942239858433
4.17499999999999,-0.469844105649142,0.278516349282233
4.18749999999999,-0.707130790921228,0.409980285162357
4.19999999999999,-0.837393608006013,0.477876675190991
4.21249999999999,-0.840376993407455,0.472606645425763
4.22499999999999,-0.715169714934655,0.395775166269284
4.23749999999999,-0.480422875776499,0.259824384531039
4.24999999999999,-0.171567095955284,0.08602746641775
4.26249999999999,0.164527276509334,-0.0988401617218501
4.27499999999999,0.476689109236852,-0.266626763273407
4.28749999999999,0.717196562892248,-0.392081444044391
4.29999999999999,0.849123732435623,-0.456685294139257
4.3125,0.85197240055823,-0.451342101156259
4.325,0.724873612327765,-0.377680381739882
4.3375,0.486791208320881,-0.247670442465917
4.35,0.173668467632034,-0.0816860872978878
4.3625,-0.16695744717086,0.0946729110750386
4.375,-0.483227227977004,0.254561466485196
4.3875,-0.726808493603495,0.373938916360104
4.4,-0.860312521087449,0.435205719274636
4.4125,-0.863025309492801,0.429792726563344
4.425,-0.734119896686239,0.359348260929223
4.4375,-0.492844019290014,0.235360608660326
4.45,-0.175669774722817,0.0773019814474014
4.4625,0.169283049976254,-0.0904496797324514
4.475,0.48945914451025,-0.242339431794213
4.4875,0.735959200582945,-0.35556032010736
4.5,0.870957606147028,-0.413454146449701
4.5125,0.873532717733025,-0.407975816212649
4.525,0.742902923424882,-0.340792409288171
4.5375,0.498594838886703,-0.22290664886616
4.55,0.177548972910821,-0.0728647221528478
4.5625,-0.171495750639568,0.0861663664167558
4.575,-0.495384823152679,0.229967259589455
4.5875,-0.744643708684138,0.336960192242017
4.6,-0.881055171504518,0.391445778755298
4.6125,-0.883492476297412,0.385904782062417
4.625,-0.751218310028194,0.322024966402816
4.6375,-0.504034549004815,0.210313454901256
4.65,-0.179320862748727,0.0683821855895665
4.66250000000001,0.17360158873208,-0.0818320622670107
4.67500000000001,0.500999084559298,-0.21745388802011
4.68750000000001,0.75286485357315,-0.318148480157719
4.70000000000001,0.890600672264308,-0.369190958943583
4.71250000000001,0.892899328131091,-0.363590862365652
4.72500000000001,0.759062851718591,-0.303053156121127
4.73750000000001,0.509154371190971,-0.197585765081413
4.75000000000001,0.180983947881769,-0.0638551970120552
4.76250000000001,-0.17560641693174,0.0774476458168517
4.77500000000001,-0.506292382785169,0.204796751447701
4.78750000000001,-0.760615036332114,0.299137777623938
4.80000000000001,-0.899586663924964,0.346702806125429
4.81250000000001,-0.901744770254261,0.341045936721041
4.82500000000001,-0.766429690470466,0.283889742522647
4.83750000000001,-0.513950737133503,0.18473230837703
4.85000000000001,-0.182530835606121,0.0592875617362423
4.86250000000001,0.177492436591994,-0.073010715578348
4.87500000000001,0.511278757508874,-0.192015163443641
4.88750000000001,0.767881692282403,-0.279935309750048
4.90000000000001,0.908003148153177,-0.323994360964983
4.91250000000001,0.910017830805508,-0.318284422439142
4.92500000000001,0.773308514570064,-0.264541682952973
4.93750000000001,0.518423309337799,-0.171765282279967
4.95000000000001,0.183955289351539,-0.0546837850806258
4.96250000000001,-0.179266690015509,0.0685287660766339
4.97500000000001,-0.515936425632674,0.179109983928628
4.98750000000001,-0.774660320314318,0.260556041804403
5.00000000000001,-0.915841509174388,0.301080381321902
5.01250000000002,-0.917710379346138,0.295321075522571
5.02500000000002,-0.77969818086112,0.245033505642916
