"Time [ms]","InducedVoltage(Cos_Winding) [mV]","InducedVoltage(Sin_Winding) [mV]"
0,-963.112026531161,557.427403208374
0.0125,-838.270897854253,479.557384141081
0.025,-713.429769177345,401.687365073789
0.0375,-479.300252658248,263.790391359248
0.05,-171.226158349061,87.4414334491342
0.0625,164.067223573998,-100.202222649783
0.075,475.503603394811,-270.565300985735
0.0875,715.49122034578,-398.010386131539
0.1,847.165031721148,-463.698664797972
0.1125,850.06322154228,-458.374944854639
0.125,723.300058090875,-383.658353972444
0.1375,485.786747030109,-251.685289553888
0.15,173.366981194474,-83.1170911220367
0.1625,-166.53136199571,96.0572359960284
0.175,-482.157008471968,258.549490232245
0.1875,-725.271823298708,379.932845754728
0.2,-858.556815089262,442.296108062938
0.2125,-861.319997468438,436.900643071924
0.225,-732.721838013045,365.389539686597
0.2375,-491.958970348008,239.413369124469
0.25,-175.402823638395,78.7401586726742
0.2625,168.896449239152,-91.8473214425734
0.275,488.504782415302,-246.370735356105
0.2875,734.598164024088,-361.614659837099
0.3,869.404234814697,-420.610994412566
0.3125,872.031550860136,-415.147139605102
0.325,741.675699796065,-346.88620039004
0.3375,497.8188274976,-226.990479884282
0.35,177.326164180539,-74.311920977724
0.3625,-171.155205233165,87.5838258646818
0.375,-494.542188335657,234.033657043369
0.3875,-743.453566764333,343.060942328838
0.4,-879.70128302465,398.657316111606
0.4125,-882.187732704259,393.129094097335
0.425,-750.155103154011,328.160139537452
0.4375,-503.364924615731,214.422681656532
0.45,-179.128652130292,69.8335655385645
0.4625,173.295692792695,-83.2556074292722
0.475,500.269115844296,-221.546455594742
0.4875,751.835301157621,-324.293572669858
0.5,889.436303857446,-376.449845575808
0.5125,891.782559045506,-370.861263685038
0.525,758.156905753631,-309.226080369617
0.5375,508.591820313323,-201.721739567869
0.55,180.831021150518,-65.3180037147397
0.5625,-175.337176096279,78.8820181849221
0.575,-505.674045462283,208.918738936939
0.5875,-759.742551126893,305.319034984917
0.6,-898.608534626287,354.007295671437
0.6125,-900.812049232358,348.360943935385
0.625,-765.687171985772,290.100173691372
0.6375,-513.493030844101,188.892421954142
0.65,-182.415927070049,60.7609525216559
0.6625,177.263980636067,-74.4558328022547
0.675,510.759007303624,-196.16115058785
0.6875,767.169868501757,-286.155577234271
0.7,907.215323758191,-331.341931865542
0.7125,909.279174927026,-325.642626611179
0.725,772.731091764164,-270.792645388271
0.7375,518.078811885583,-175.945645646199
0.75,183.883781960207,-56.1623568292925
0.7625,-179.074692156524,69.9842390507492
0.775,-515.531234909059,183.28270454222
0.7875,-774.112340268794,266.808411446091
0.8,-915.254594271373,308.467919823294
0.812500000000001,-917.174180092545,302.717317332063
0.825000000000001,-779.291363227432,251.311549766433
0.837500000000001,-522.337036005326,162.885625616387
0.850000000000001,-185.233993185139,51.527379916932
0.862500000000001,180.774663017695,-65.4665953250539
0.875000000000001,519.968642919936,-170.283964746908
0.887500000000001,780.576661067661,-247.295191692501
0.900000000000001,922.71660659324,-285.396121200166
0.912500000000001,924.490945216462,-279.599622145842
0.925000000000001,785.359461739474,-231.669457232317
0.937500000000001,526.258412680543,-149.720845038796
0.950000000000001,186.478166755623,-46.8605141688041
0.962500000000001,-182.368199311711,60.9095189886352
0.975000000000001,-524.082771498335,157.176756863947
0.987500000000001,-786.543253550881,227.621918703866
1,-929.592763117865,262.142244361854
1.0125,-931.219515142036,256.301444505982
1.025,-790.927840569814,211.878482518018
1.0375,-529.854376804157,136.462528845361
1.05,-187.587955680581,42.1646575120989
1.0625,183.839832010086,-56.3123588490635
1.075,527.865557502658,-143.970387120859
1.0875,792.006584086691,-207.803675188267
1.1,935.877715698775,-238.720692501939
1.1125,937.355968076697,-232.841517112912
1.125,795.991379008805,-191.955585277341
1.1375,533.108042547377,-123.115248036819
1.15,188.58532493295,-37.4416552236968
1.1625,-185.19418949326,51.679052916432
1.175,-531.311274440892,130.672405562161
1.1875,-796.967104262916,187.852840182857
1.2,-941.568147469988,215.149707266831
1.2125,-942.898251107112,209.235347253888
1.225,-800.554176937611,171.912002615443
1.2375,-536.026289142132,109.694785951449
1.25,-189.463972618336,32.6960451641305
1.2625,186.436075562361,-47.013449401909
1.275,534.413288741931,-117.292991787497
1.2875,801.428181839218,-167.786729698105
1.3,946.665144777226,-191.445010319327
1.3125,947.846836007001,-185.500212363168
1.325,804.612366107726,-151.762033652022
1.3375,538.6098447414,-96.203311341992
1.35,190.225186350698,-27.9289990188656
1.3625,-187.550248442277,42.3162838920979
1.375,-537.189699267764,103.839775707863
1.3875,-805.383608191092,147.616854811443
1.4,-951.170678421746,167.621642187675
1.4125,-952.203939800234,161.6481146255
1.425,-808.162447986005,131.513971585304
1.4375,-540.85856606089,82.6541024011275
1.45,-190.866713162599,23.1456686666939
1.4625,188.555614512529,-37.5972242535249
1.475,539.624326511964,-90.3223855914101
1.4875,808.833313005892,-127.35208528438
1.5,955.078414104837,-143.690162316125
1.5125,955.960390180878,-137.692158748096
1.525,811.213986338229,-111.184376458723
1.5375,542.758086892316,-69.047664019891
1.55,191.388139097358,-18.3459087876741
1.5625,-189.439656958494,32.8511460852687
1.575,-541.725853017824,76.7465136249147
1.5875,-811.774704296823,107.005888996458
1.6,-958.380389362582,119.666559474443
1.6125,-959.112472845205,113.647645304965
1.625,-813.746326523756,90.7826630965612
1.6375,-544.315823079019,55.3994789584456
1.65,-191.784800830848,13.5346047921312
1.6625,190.204019699537,-28.0869761306281
1.675,543.480393923214,-63.1222099497486
1.6875,814.19948579508,-86.5890331157261
1.7,961.075524993265,-95.5661730653894
1.7125,961.654893533948,-89.5317356837017
1.725,815.758654541063,-70.3237836967308
1.7375,545.530933243457,-41.7148495628004
1.75,192.053561386455,-8.71363966419384
1.7625,-190.844598176321,23.298979121982
1.775,-544.886494386989,49.4561510047842
1.7875,-816.109471150867,66.1214861738801
1.8,-963.157480123926,71.4073924157497
1.8125,-963.586670004876,65.3607224100301
1.825,-817.255528261802,49.8220189265356
1.8375,-546.396941512537,28.0078356271169
1.85,-192.215896765688,3.89134149399826
1.8625,191.372336572742,-18.5012944181521
1.875,545.947340045327,-35.7611456986064
1.8875,817.499881151416,-45.6127611933103
1.9,964.635479913064,-47.2067172001579
1.9125,964.909437820936,-41.1522502146296
1.925,818.240590289542,-29.2909362736274
1.9375,546.918874942311,-14.2843512274651
1.95,192.253721043555,0.933108961587951
1.9625,-191.773725328362,13.69046626217
1.97499999999999,-546.666830968416,22.0456214594254
1.98749999999999,-818.375332826968,25.0793583019938
1.99999999999999,-965.506736108922,22.978982782979
2.01249999999999,-965.62895960256,16.9189613142376
2.02499999999999,-818.712520547492,8.74483166019689
2.03749999999999,-547.103228169407,0.551979143715194
2.04999999999999,-192.166721944844,-5.75830498976172
2.06249999999999,192.050319117067,-8.87474857839952
2.07499999999999,547.04843141724,-8.31784561972148
2.08749999999999,818.740031935873,-4.52818951682104
2.09999999999999,965.772648930962,1.26331659167541
2.11249999999999,965.741573430253,7.32474614393851
2.12499999999999,818.668614191681,11.809771639786
2.13749999999999,546.946090069855,13.1822102934468
2.14999999999999,191.959719974682,10.5806537693013
2.16249999999999,-192.213737304909,4.05001484932938
2.17499999999999,-547.076438617585,-5.41609851406597
2.18749999999999,-818.594876683363,-16.0249968250278
2.19999999999999,-965.430946197514,-25.50630136212
2.21249999999999,-965.250338900919,-31.5651382687768
2.22499999999999,-818.097988583371,-32.3556606463415
2.23749999999999,-546.442459226992,-26.9073806548972
2.24999999999999,-191.635140182948,-15.3982866092667
2.26249999999999,192.257579684001,0.776811888972451
2.27499999999999,546.762951654946,19.1481390378265
2.28749999999999,817.928023498273,36.5689515959966
2.29999999999999,964.477373192852,49.7325637191153
2.31249999999999,964.143661752087,55.7850562139155
2.32499999999999,817.022788526609,52.8831297629018
2.33749999999999,545.575560348421,40.61491140409
2.34999999999999,191.189514304528,20.2011343502954
2.36249999999999,-192.175569033856,-5.60340708234786
2.37499999999999,-546.106207355775,-32.8675654386197
2.38749999999999,-816.738633483838,-57.0869502796591
2.39999999999999,-962.911116192098,-73.9263089925956
2.41249999999999,-962.422582131561,-79.9668541572116
2.42499999999999,-815.426647210397,-73.3719459007634
2.43749999999999,-544.368135146056,-54.2947848910855
2.44999999999999,-190.616273171257,-24.9936971445948
2.46249999999999,191.965048944151,10.4250767688145
2.47499999999999,545.100485851733,46.5648573323666
2.48749999999999,815.034423940174,77.5685331587217
2.49999999999999,960.733680051907,98.0688149515914
2.51249999999999,960.094091266803,104.095091712236
2.52499999999999,813.313761570756,93.812034636752
2.53749999999999,542.833394381226,67.9393534033289
2.54999999999999,189.90422597013,29.7639816609618
2.56249999999999,-191.628070757496,-15.2381218268703
2.57499999999999,-543.747906547836,-60.227785711264
2.58749999999999,-812.817748254158,-97.997864229602
2.59999999999999,-957.951748758291,-122.146689764022
2.61249999999999,-957.163516900869,-128.154130541341
2.62499999999999,-810.688746279865,-114.189964289742
2.63749999999999,-540.953041641999,-81.5399363112884
2.64999999999999,-189.108029578371,-34.5243379357769
2.66249999999999,191.200573965922,20.0459075811864
2.67499999999999,542.049889878608,73.8536457841065
2.68749999999999,810.090298005852,118.362765474975
2.69999999999999,954.572573671779,146.146050414223
2.71249999999999,953.634935378389,152.13282755864
2.72499999999999,807.556867771953,134.498098740597
2.73749999999999,538.729151522615,95.0875512709567
2.74999999999999,188.185084767889,39.2590770476872
2.76249999999999,-190.640074709081,-24.8369700883563
2.77499999999999,-540.021299511816,-87.4317498445103
2.78749999999999,-806.851343081448,-138.653596167792
2.79999999999999,-950.593323260101,-170.05523869398
2.81249999999999,-949.504500465629,-176.015948404662
2.82499999999999,-803.920770763384,-154.723043631654
2.83749999999999,-536.162343682402,-108.576837320851
2.84999999999999,-187.138274666639,-43.9691643572129
2.86249999999999,189.945477554491,29.6104469848691
2.87499999999999,537.667084103008,100.961235666906
2.88749999999999,803.100819228247,158.856564668264
2.89999999999999,946.012509803427,193.856746626424
2.91249999999999,944.773226503405,199.788820174608
2.92499999999999,799.771516015019,174.848217322895
2.93749999999999,533.259724327454,121.997438443124
2.94999999999999,185.967817705181,48.6496492459733
2.96249999999999,-189.138479149013,-34.3668547168634
2.97499999999999,-534.947009214753,-114.417892984358
2.98749999999999,-798.857326967206,-178.963823120148
2.99999999999999,-940.829470331043,-217.535554597125
3.01249999999999,-939.442404189926,-223.433588606251
3.02499999999999,-795.111389817493,-194.860091546181
3.03749999999999,-530.019402152653,-135.341550194428
3.04999999999999,-184.679132401049,-53.2998565252607
3.06249999999999,188.212587097581,39.1048908560054
3.07499999999999,531.891144101791,127.805678216408
3.08749999999999,794.097692272077,198.951522162227
3.09999999999999,935.050906188293,241.072995925499
3.11249999999999,933.515401057659,246.934086719175
3.12499999999999,789.949053475071,214.74738270983
3.13749999999999,526.440393108301,148.594016934513
3.14999999999999,183.285691531249,57.9187073184172
3.16249999999999,-187.172864037465,-43.8169667124168
3.17499999999999,-528.501738071301,-141.110250700775
3.18749999999999,-788.83067832689,-218.810609037323
3.19999999999999,-928.685259835214,-264.456367519458
3.21249999999999,-927.000226055618,-270.275135770153
3.22499999999999,-784.293452691731,-234.498864340637
3.23749999999999,-522.530521869718,-161.752934169536
3.24999999999999,-181.770452884185,-62.4967540644469
3.26249999999999,186.006535378237,48.4983423014424
3.27499999999999,524.782388197106,154.325129951839
3.28749999999999,783.070757378266,238.529544774705
3.29999999999999,921.734973628505,287.670671658465
3.31249999999999,919.904676899913,293.446246946232
3.32499999999999,778.147096400529,254.100249892339
3.33749999999999,518.298953778903,174.812664009522
3.34999999999999,180.138632944669,67.0359919151701
3.36249999999999,-184.72452283375,-53.1462372273771
3.37499999999999,-520.735979191751,-167.44197477759
3.38749999999999,-776.821623375347,-258.101386500927
3.39999999999999,-914.207235702804,-310.705554599771
3.41249999999999,-912.23363219932,-316.43421326168
3.42499999999999,-771.507534985021,-273.544542275946
3.43749999999999,-513.739927933278,-187.762871671324
3.44999999999999,-178.395855429896,-71.535939482357
3.46249999999999,183.331046542752,57.7662588323471
3.47499999999999,516.35435322122,180.452036407787
3.48749999999999,770.088200565401,277.512692836832
3.49999999999999,906.103351278951,333.546579010264
3.51249999999999,903.988384069491,339.225053391579
3.52499999999999,764.379969147822,292.815559453685
3.53749999999999,508.853826313818,200.593977139547
3.54999999999999,176.542798961532,75.9926818788849
3.56249999999999,-181.822492631644,-62.3490451356028
3.57499999999999,-511.654109391903,-193.353287427233
3.58749999999999,-762.862850002404,-296.747909120956
3.59999999999999,-897.425527526182,-356.177030573986
3.61249999999999,-895.167237646139,-361.800408905781
3.62499999999999,-756.772258838233,-311.904661869824
3.63749999999998,-503.643370152806,-213.297614447629
3.64999999999998,-174.571884459383,-80.3941599658178
3.66249999999998,180.195553199624,66.890474258388
3.67499999999998,506.629316261887,206.132438268847
3.68749999999998,755.152562419338,315.793297882741
3.69999999999998,888.177320254384,378.580635226054
3.71249999999998,885.77712674305,384.144322171838
3.72499999999998,748.684244504369,330.790801158038
3.73749999999998,498.113362480113,225.865179410611
3.74999999999998,172.490812823362,84.7484127807571
3.76249999999998,-178.454349995195,-71.3915978706039
3.77499999999998,-501.279449703703,-218.776260998817
3.78749999999998,-746.965645685208,-334.639558873114
3.79999999999998,-878.366102208732,-400.741298226119
3.81249999999998,-875.828132572109,-406.243018388647
3.82499999999998,-740.12307624022,-349.468055883483
3.83749999999998,-492.274166411185,-238.288811843857
3.84999999999998,-170.303658647666,-89.0472171425174
3.86249999999998,176.601628418292,75.846890235439
3.87499999999998,495.612615824375,231.279719219989
3.88749999999998,738.309152636802,353.271729040386
3.89999999999998,868.005638009711,422.648765261554
3.91249999999998,865.331145457822,428.084433729454
3.92499999999998,731.097303664078,367.922124021252
3.93749999999998,486.127346159032,250.564390158846
3.94999999999998,168.010088289937,93.2930333434853
3.96249999999999,-174.632840279092,-80.2509328753578
3.97499999999999,-489.638985098407,-243.641724867646
3.98749999999999,-729.189901833148,-371.680037518911
3.99999999999999,-857.104157376039,-444.291286490352
4.01249999999999,-854.29417353515,-449.658942159069
4.02499999999999,-721.613116956489,-386.148689567168
4.03749999999999,-479.674791806974,-262.681434063254
4.04999999999999,-165.616051375748,-97.4793151518671
4.06249999999999,172.562021778861,84.6060054315567
4.07499999999999,483.35905642404,255.848039496004
4.08749999999999,719.61438904301,389.85814639083
4.09999999999999,845.662667419507,465.656190173548
4.11249999999999,842.717239528674,470.951440908788
4.12499999999999,711.681253817273,404.135743602899
4.13749999999999,472.915844265386,274.633750311742
4.14999999999999,163.113755886627,101.605997672706
4.16249999999999,-170.381041490737,-88.9097182456138
4.17499999999999,-476.774231110417,-267.896577506011
4.18749999999999,-709.586225107043,-407.792338152327
4.19999999999999,-833.686596783315,-486.728299141894
4.21249999999999,-830.609981116583,-491.949318385319
4.22499999999999,-701.292036129212,-421.863982842517
4.23749999999999,-465.860871095586,-286.413347708641
4.24999999999999,-160.504215714158,-105.663954967855
4.26249999999999,168.090753149321,93.1546050270776
4.27499999999999,469.890751392422,279.775304999885
4.28749999999999,699.10349083786,425.468114447382
4.29999999999999,821.182109640803,507.49258002929
4.3125,817.974765877118,512.63364686695
4.325,690.458625249343,439.323583437061
4.3375,458.509528643915,298.011127689548
4.35,157.79143053168,109.656665410804
4.3625,-165.693503851629,-97.3452133424749
4.375,-462.700970832214,-291.476094894212
4.3875,-688.182813104871,-442.871762447216
4.4,-808.157063476954,-527.931953320915
4.4125,-804.821200198895,-532.990237213508
4.425,-679.190675024015,-456.505819065252
4.4375,-450.864790891067,-309.413671435298
4.45,-154.992016197839,-113.583368252198
4.4625,163.19568692414,101.472936946376
4.475,455.222128432049,302.989268129772
4.4875,676.826717695069,459.994360541137
4.5,794.624150192176,548.036530995895
4.5125,791.162789420658,553.008546573338
4.525,667.49694462756,473.398435909014
4.5375,442.944632200648,320.626191106837
4.55,152.085026853577,117.43178815327
4.5625,-160.58884061405,-105.532523555129
4.575,-447.460167812146,-314.313011279465
4.5875,-665.045315079615,-476.823652321659
4.6,-780.595070529799,-567.795775233196
4.6125,-777.010472162605,-572.679588986358
4.625,-655.386054350089,-489.991938966952
4.6375,-434.748303721533,-331.640086073049
4.65,-149.085149468797,-121.209438138796
4.66250000000001,157.884611054132,109.525317060945
4.67500000000001,439.420236450741,325.437241705966
4.68750000000001,652.848993297593,493.358314856518
4.70000000000001,766.076139799643,587.200179236175
4.71250000000001,762.37091622671,591.993276485609
4.72500000000001,642.862467964906,506.280317146572
4.73750000000001,426.274832969339,342.44332957652
4.75000000000001,145.992511285055,124.915942875691
4.76250000000001,-155.086719863792,-113.455663975364
4.77500000000001,-431.094720487932,-336.356648640126
4.78750000000001,-640.244474397826,-509.584218124474
4.80000000000001,-751.074814597325,-606.236336039437
4.81250000000001,-747.250097677544,-610.936224388172
4.82500000000001,-629.933733516389,-522.250453361121
4.83750000000001,-417.530697636765,-353.030093778525
4.85000000000001,-142.806232175011,-128.540755522839
4.86250000000001,152.183438606574,117.310412456959
4.87500000000001,422.508027181319,347.070982184293
4.88750000000001,627.231597952226,525.486747096713
4.90000000000001,735.597698132388,624.889386051706
4.91250000000001,731.655236542899,629.491624816731
4.92500000000001,616.600456451565,537.89007886078
4.93750000000001,408.526320767554,363.391872450976
4.95000000000001,139.527363207478,132.077732006519
4.96250000000001,-149.185121013903,-121.089227417567
4.97500000000001,-413.649708323533,-357.562893862641
4.98750000000001,-613.821378671315,-541.055015897766
5.00000000000001,-719.65316982596,-643.144171696191
5.01250000000002,-715.594917395116,-647.644778604292
5.02500000000002,-602.884128099216,-553.185486980092
5.03750000000002,-399.255985093476,-373.52202001994
5.05000000000002,-136.162173725102,-135.534543254256
5.06250000000002,146.094077611354,124.794862791149
5.07500000000002,404.526435976004,367.82204625159
5.08750000000002,600.024381859128,556.281668065024
5.10000000000002,703.252309693262,660.98825253138
5.11250000000002,699.084373393456,665.385982658599
5.12500000000002,588.785434202759,568.131631886758
5.13750000000002,389.738436659601,383.416989690819
5.15000000000002,132.713200239224,138.905535987359
5.16250000000002,-142.909528208715,-128.419902279992
5.17500000000002,-395.150815461856,-377.850247788943
5.18750000000002,-585.847440207835,-571.152746129208
5.20000000000002,-686.413661443971,-678.417244805947
5.21250000000002,-682.13667436957,-682.708056234262
5.22500000000002,-574.317111246367,-582.71638611599
5.23750000000002,-379.98001565931,-393.074190153841
