"Time [ms]","InducedVoltage(Cos_Winding) [V]","InducedVoltage(Sin_Winding) [V]"
0,0.00179817008873517,1.11214576035324
0.0125,-0.00329948524796003,0.965180432695343
0.025,-0.00839714058465524,0.818215105037448
0.0375,-0.0109032162810256,0.546662771643022
0.05,-0.00978264911031956,0.191894558622035
0.0625,-0.0048497136031211,-0.192075772817522
0.075,0.00313683906536928,-0.546762386608203
0.0875,0.0126127259551707,-0.81816180997387
0.1,0.0214826398367594,-0.964952899732095
0.1125,0.0275428119682137,-0.964800685197827
0.125,0.028948127737329,-0.817747979480833
0.1375,0.024631573069848,-0.54622685340976
0.15,0.0145987810149015,-0.191586485357756
0.1625,2.71289208699257e-05,0.192137391778221
0.175,-0.016871011849935,0.546515779002665
0.1875,-0.0331610359498966,0.817592557139307
0.2,-0.0457163749428335,0.964116276660522
0.2125,-0.0517711884006426,0.963811313131716
0.225,-0.0494828450179638,0.816772253718861
0.2375,-0.0383469499632528,0.545435827327672
0.25,-0.0194077526317363,0.191160820304724
0.2625,0.0048015503435159,-0.192080342269677
0.275,0.030593957139327,-0.54592358113901
0.2875,0.0536906073396116,-0.816509338175985
0.3,0.0699226212781315,-0.962666954032066
0.3125,0.0759690320538353,-0.962210133260206
0.325,0.0699863288763242,-0.815273774590615
0.3375,0.0520372275293745,-0.544298682134067
0.35,0.0242048825148871,-0.190611941287423
0.3625,-0.00962405558677507,0.191904518056594
0.375,-0.0442983273837065,0.544982897021739
0.3875,-0.0741884987708209,0.814900617254117
0.4,-0.0940865893200594,0.960606500073947
0.4125,-0.100118183753282,0.95999538683863
0.425,-0.0904458397229573,0.813253217848241
0.4375,-0.0656957052380557,0.542816877662006
0.45,-0.028985169189765,0.189933924043967
0.4625,0.0144431245195189,-0.19159411801881
0.475,0.0579775558158536,-0.543698138496167
0.4875,0.0946349940383063,-0.812774887967946
0.5,0.118189223675338,-0.957932263036503
0.5125,0.124202910425893,-0.957169604180346
0.525,0.110846327597003,-0.81071502595525
0.5375,0.0793101424461957,-0.540992421028655
0.55,0.0337476461657712,-0.189150082109034
0.5625,-0.0192521084137845,0.19117487211861
0.575,-0.0716175948317091,0.54206451884268
0.5875,-0.115023316359561,0.810134438383969
0.6,-0.142214007173704,0.954653305054072
0.6125,-0.148206131809434,0.953738220138515
0.625,-0.131177469983094,0.807672389539171
0.6375,-0.0928728899539298,0.538821910797056
0.65,-0.0384867347630368,0.188243660883331
0.6625,0.0240491326775902,-0.190630126704781
0.675,0.0852101081665669,-0.540088908925093
0.6875,0.13533538044888,-0.806983956791972
0.7,0.166148605416375,-0.950773190053099
0.7125,0.172116914436857,-0.949710580175378
0.725,0.151422317488728,-0.804117901000476
0.7375,0.106379277794448,-0.53631908791465
0.75,0.0432037838504534,-0.187215464849298
0.7625,-0.0288278337158849,0.189962411446678
0.775,-0.0987505810149396,0.53778150023828
0.7875,-0.155563670343531,0.803321961937328
0.8,-0.189980208697055,0.94629716143451
0.812500000000001,-0.195920786953967,0.945083955245205
0.825000000000001,-0.1715757073681,0.800057760639955
0.837500000000001,-0.119819988651251,0.533476107121946
0.850000000000001,-0.047893062229415,0.186067143708335
0.862500000000001,0.0335903820404579,-0.189175542242595
0.875000000000001,0.112227625204435,-0.535124557291507
0.887500000000001,0.175697002651078,-0.799162463320002
0.900000000000001,0.21369453556281,-0.941222404967417
0.912500000000001,0.219602346192786,-0.93986046979278
0.925000000000001,0.191622336252608,-0.795490608409882
0.937500000000001,0.133182938328845,-0.530289256949531
0.950000000000001,0.0525579168050963,-0.184810686719829
0.962500000000001,-0.0383340765899435,0.188276626213252
0.975000000000001,-0.125637747519562,0.532133435320689
0.987500000000001,-0.195719975784136,0.794491876135175
1,-0.237273737940537,0.935549085308532
1.0125,-0.243145984436326,0.934037068686741
1.025,-0.211548280000645,0.790416411672417
1.0375,-0.14646494692314,0.526773419714999
1.05,-0.0571799457910968,0.183423604473477
1.0625,0.0430518590655031,-0.187252518763089
1.075,0.138967567082376,-0.528805244149008
1.0875,0.215617199278776,-0.789313051646623
1.1,0.260702532035255,-0.929279691080398
1.1125,0.266533849250492,-0.92761994912826
1.125,0.231336239798944,-0.784838950956182
1.1375,0.159652303953546,-0.522916496068631
1.15,0.0617693889340996,-0.181925687142217
1.1625,-0.0477422765833853,0.186108491457144
1.175,-0.152208523297772,0.525139476088942
1.1875,-0.235377526753177,0.783632262126556
1.2,-0.283963455615487,0.922420854715696
1.2125,-0.289751244877183,0.920615271742405
1.225,-0.250978074950273,0.778767398457369
1.2375,-0.172735564483688,0.518732864830729
1.25,-0.0663188217017878,0.18031336070865
1.2625,0.0524044952426617,-0.184850392766183
1.275,0.165347638241386,-0.521135741146202
1.2875,0.254988033476785,-0.777461412932653
1.3,0.307043539418536,-0.914981349971225
1.3125,0.312783320814547,-0.913031955220985
1.325,0.27045959975272,-0.772205694347584
1.3375,0.185712263862971,-0.51422371139649
1.35,0.0708283175350617,-0.178589033466476
1.3625,-0.0570293979704278,0.18346671784978
1.375,-0.178388203728581,0.516812679877602
1.3875,-0.274435597843516,0.770800917335155
1.4,-0.32993030278774,0.906970080446537
1.4125,-0.33562069456784,0.904877765338223
1.425,-0.289771938460549,0.765155072060268
1.4375,-0.198572094386848,0.509395593724439
1.45,-0.075292314981479,0.17675275823726
1.4625,0.0616196832861292,-0.181977659763384
1.475,0.191313168982542,-0.512161493672381
1.4875,0.293712325969513,-0.763654887558568
1.5,0.352611864578497,-0.898387149423711
1.5125,0.358247744456441,-0.89615159737446
1.525,0.308906003713066,-0.757631779757329
1.5375,0.21130686380249,-0.504236847869265
1.55,0.0797099592964891,-0.174803879712584
1.5625,-0.0661720882331069,0.180369932856893
1.575,-0.204122679546413,0.507192869467586
1.5875,-0.312805499793979,0.756027727069472
1.6,-0.375070304114209,0.889233576375144
1.6125,-0.380649718834366,0.886857763407319
1.625,-0.32784259946826,0.749622578877723
1.6375,-0.223906995556783,0.498760964945535
1.65,-0.084075510172614,0.172741353036844
1.6625,0.0706810894441315,-0.17864978203185
1.675,0.216800183066516,-0.501898958120941
1.6875,0.331701306782091,-0.747917958825623
1.7,0.397292245209357,-0.879515962322249
1.7125,0.402808560505528,-0.876999866942959
1.725,0.34656911937974,-0.741134563601181
1.7375,0.236367164768978,-0.492969759100707
1.75,0.0883856449122531,-0.170563467121801
1.7625,-0.0751484015679363,0.176810031271294
1.775,-0.229339732859529,0.49628280524085
1.7875,-0.350384325131095,0.739336933601719
1.8,-0.419258030477502,0.869237887687721
1.8125,-0.424709942205749,0.866585667382621
1.825,-0.365074669490056,0.732178539905237
1.8375,-0.248672378847865,0.486865540490063
1.85,-0.0926438466280408,0.168292653676082
1.8625,0.079567636773833,-0.174867850931513
1.875,0.24173225260588,-0.4903533317139
1.8875,0.368842681183217,-0.730285315117108
1.9,0.440958267129181,-0.858415904700836
1.9125,0.446339133756364,-0.855625610486918
1.925,0.383350031216703,-0.722764752351879
1.9375,0.260819954436195,-0.480455052721191
1.95,0.0968410308832408,-0.165912684515156
1.9625,-0.0839351367891147,0.172809696207833
1.97499999999999,-0.253971633444623,0.484117778737656
1.98749999999999,-0.387065277584835,0.720775656134495
1.99999999999999,-0.462378102996095,0.84705497000348
2.01249999999999,-0.467688001783959,0.844130883562882
2.02499999999999,-0.401381853121357,0.712898754363529
2.03749999999999,-0.272805736833947,0.473747295816701
2.04999999999999,-0.100976957425604,0.163424664579069
2.06249999999999,0.0882446898023874,-0.170641290759385
2.07499999999999,0.26605239012332,-0.477583732291052
2.08749999999999,0.405047498354924,-0.710813921360066
2.09999999999999,0.483507971457546,-0.835162654892351
2.11249999999999,0.488742319109038,-0.832105140956892
2.12499999999999,0.419162780071742,-0.702582402377225
2.13749999999999,0.284623207648685,-0.466742880729908
2.14999999999999,0.105049841437009,-0.160833552462847
2.16249999999999,-0.0925050821766983,0.168369727411344
2.17499999999999,-0.277961466686118,0.470739516043696
2.18749999999999,-0.422776685660723,0.700410894862959
2.19999999999999,-0.50433491431496,0.822743839188496
2.21249999999999,-0.509492335747674,0.81955765291886
2.22499999999999,-0.436672199957822,0.691814883694049
2.23749999999999,-0.296259733576099,0.459442605948006
2.24999999999999,-0.109060603292552,0.158143814280099
2.26249999999999,0.0967074102183638,-0.165993974934715
2.27499999999999,0.289698860344882,-0.463601712635496
2.28749999999999,0.4402371233569,-0.689560004687636
2.29999999999999,0.524841479274115,-0.80980326553264
2.31249999999999,0.529916850548265,-0.806487425090248
2.32499999999999,0.453914852781784,-0.680618487833909
2.33749999999999,0.30769829306954,-0.451839506954329
2.34999999999999,0.112998008564031,-0.155353975729657
2.36249999999999,-0.100847140370535,0.163509433950046
2.37499999999999,-0.30125321382246,0.45617214397461
2.38749999999999,-0.457414091275217,0.67826976107579
2.39999999999999,-0.545013560116161,0.796348057557615
2.41249999999999,-0.55000129089625,0.792904477029379
2.42499999999999,-0.470863268922169,0.668989701926223
2.43749999999999,-0.318943224866812,0.443953592575671
2.44999999999999,-0.116862290101688,0.152461478111175
2.46249999999999,0.104917985327153,-0.160917081122887
2.47499999999999,0.312614406563622,-0.448451253149908
2.48749999999999,0.474301890169205,-0.666551467874063
2.49999999999999,0.564835793394018,-0.78238944841214
2.51249999999999,0.569735743038277,-0.778822251624068
2.52499999999999,0.487510845725594,-0.656938554933663
2.53749999999999,0.329994310780987,-0.435799385167006
2.54999999999999,0.120637762418248,-0.149463623588105
2.56249999999999,-0.108918412783553,0.15822096879118
2.57499999999999,-0.323772053362602,0.440447174968982
2.58749999999999,-0.49088830315856,0.6544157086737
2.59999999999999,-0.584299893326258,0.767939963796612
2.61249999999999,-0.589109087238216,0.764253194773972
2.62499999999999,-0.503848745257211,0.644475307432509
2.63749999999999,-0.340833949964639,0.427369437247828
2.64999999999999,-0.124362806371528,0.146391105004172
2.66249999999999,0.112869016954232,-0.155441892468116
2.67499999999999,0.334725167737567,-0.432165209596209
2.68749999999999,0.507163352491076,-0.641869600405556
2.69999999999999,0.603397052362255,-0.753012342872202
2.71249999999999,0.608113515175198,-0.749206308285546
2.72499999999999,0.519872732190214,-0.631607375598286
2.73749999999999,0.351456343103458,-0.41866971856133
2.74999999999999,0.128002107063402,-0.14322289388769
2.76249999999999,-0.11673871718727,0.152560051010756
2.77499999999999,-0.345471459526218,0.423617744553839
2.78749999999999,-0.523118519662401,0.628918612949518
2.79999999999999,-0.62211600186746,0.737609888701603
2.81249999999999,-0.626734687442858,0.733686446416821
2.82499999999999,-0.535571916931219,0.618344452183432
2.83749999999999,-0.361856943973464,0.409701463784012
2.84999999999999,-0.131558647501262,0.139961643093816
2.86249999999999,0.120526128258691,-0.149574221220624
2.87499999999999,0.356012766666783,-0.414810143413668
2.88749999999999,0.538742117255963,-0.61556916776542
2.89999999999999,0.640441184422151,-0.721740473924864
2.91249999999999,0.644959938886335,-0.717701171235306
2.92499999999999,0.550928715091241,-0.604687121665446
2.93749999999999,0.372029692158187,-0.400476079827038
2.94999999999999,0.135027836099386,-0.136607937693359
2.96249999999999,-0.12424215218569,0.146496584384374
2.97499999999999,-0.366308129169239,0.405727175556821
2.98749999999999,-0.554036270139757,0.601836845826297
2.99999999999999,-0.65835963149561,0.705411705499903
3.01249999999999,-0.662774538931792,0.701260425316162
3.02499999999999,-0.565932349127293,0.590644304312101
3.03749999999999,-0.38196728875495,0.390996434261346
3.04999999999999,-0.138411403852713,0.133165940795861
3.06249999999999,0.127882478069727,-0.143324234578433
3.07499999999999,0.376376395651172,-0.396386651650705
3.08749999999999,0.568969088355318,-0.587719461111484
3.09999999999999,0.675857619386514,-0.688636758151102
3.11249999999999,0.680166188154481,-0.684375459791694
3.12499999999999,0.580576915490676,-0.576229080817385
3.13749999999999,0.391656900079532,-0.381269841807786
3.14999999999999,0.141715044955087,-0.129649395336408
3.16249999999999,-0.131443878092101,0.140067407372639
3.17499999999999,-0.386205584922831,0.386797914620636
3.18749999999999,-0.583537201312124,0.573228465784383
3.19999999999999,-0.692928385149628,0.671429990782927
3.21249999999999,-0.697125728948705,0.66706113312733
3.22499999999999,-0.594857151280189,0.561454077297437
3.23749999999999,-0.401100064772557,0.371304100848588
3.24999999999999,-0.144922473208945,0.126047695973721
3.26249999999999,0.134915932140034,-0.136716769027414
3.27499999999999,0.395791902321806,-0.376968302421822
3.28749999999999,0.597737118890166,-0.5583795575572
3.29999999999999,0.709560465694792,-0.653802379005817
3.31249999999999,0.713648260554115,-0.649329921258624
3.32499999999999,0.608761300934048,-0.546328390591912
3.33749999999999,0.410295851659885,-0.361108965175381
3.34999999999999,0.148038669947198,-0.122365009691905
3.36249999999999,-0.138301197303812,0.133282688109422
3.37499999999999,-0.405130117974207,0.366905123561882
3.38749999999999,-0.611564295375088,0.543180066862912
3.39999999999999,-0.725748473280612,0.635764408948107
3.41249999999999,-0.729723800249081,0.631190901811546
3.42499999999999,-0.62228375924353,0.530855857414486
3.43749999999999,-0.419232898977927,0.350684346717372
3.44999999999999,-0.151064935641725,0.118606172454659
3.46249999999999,0.141606035627534,-0.129765873455388
3.47499999999999,0.414207718310958,-0.356604796868719
3.48749999999999,0.625010917963827,-0.527641967682791
3.49999999999999,0.741480723083368,-0.617324641113331
3.51249999999999,0.745341622887254,-0.612653152944452
3.52499999999999,0.635412706297257,-0.515047642487485
3.53749999999999,0.4279027950912,-0.340036020892377
3.54999999999999,0.153999035337847,-0.114772523539436
3.56249999999999,-0.144820340862557,0.12616708710873
3.57499999999999,-0.423032768315144,0.346083155004422
3.58749999999999,-0.638059432660383,0.511766230818264
3.59999999999999,-0.756743618647359,0.598492867653991
3.61249999999999,-0.760485211035805,0.593724984979991
3.62499999999999,-0.64814246867391,0.498912213650552
3.63749999999998,-0.4363027907895,0.329172252944759
3.64999999999998,-0.156825641308741,0.110864099038525
3.66249999999998,0.147940822161697,-0.122487023403579
3.67499999999998,0.431589028427759,-0.335340869264902
3.68749999999998,0.650701205494313,-0.49556520493629
3.69999999999998,0.771525056632244,-0.57928045368602
3.71249999999998,0.775144124537657,-0.574419560395359
3.72499999999998,0.660457351466075,-0.4824632813053
3.73749999999998,0.44442338659757,-0.318098199616213
3.74999999999998,0.159556948124168,-0.106884863700535
3.76249999999998,-0.150969092619712,0.118728206523852
3.77499999999998,-0.439865999764512,0.324384656614448
3.78749999999998,-0.662932038828203,0.479050892090505
3.79999999999998,-0.785814680420025,0.559702150465147
3.81249999999998,-0.78931134238947,0.554752938115934
3.82499999999998,-0.672354797891927,0.465709696493461
3.83749999999998,-0.452264766893126,0.306828237935755
3.84999999999998,-0.162187172453553,0.102841320470954
3.86249999999998,0.1539021433598,-0.114895455929476
3.87499999999998,0.44786282755537,-0.313224883765391
3.88749999999998,0.674742503954868,-0.462236958540867
3.89999999999998,0.799610605697781,-0.539774895411051
3.91249999999998,0.802981539324992,-0.534740482185905
3.92499999999998,0.683826770678235,-0.448665279594559
3.93749999999998,0.459824129189594,-0.295366957232377
3.94999999999998,0.164717623652131,-0.0987317636049406
3.96249999999999,-0.156731813794471,0.110988478254933
3.97499999999999,-0.455584418451795,0.301870254261958
3.98749999999999,-0.686127849231972,0.445134296924533
3.99999999999999,-0.812905982305474,0.519511453807198
4.01249999999999,-0.81615032237911,0.514393854453496
4.02499999999999,-0.694871802625481,0.431337597198793
4.03749999999999,-0.467093985065889,0.28371999586276
4.04999999999999,-0.167146978531092,0.0945650090861271
4.06249999999999,0.159469012915055,-0.107017483102889
4.07499999999999,0.46301697413629,-0.290327630671922
4.08749999999999,0.69708596438256,-0.427751832541321
4.09999999999999,0.825691138138718,-0.498919510869023
4.11249999999999,0.828804927819959,-0.49372096227216
4.12499999999999,0.705486525240973,-0.413742129390891
4.13749999999999,0.474067510505512,-0.271890103439509
4.14999999999999,0.169469949558168,-0.0903344088223105
4.16249999999999,-0.162106158937217,0.102976845566374
4.17499999999999,-0.470160457109096,0.27860025205462
4.18749999999999,-0.707606778972608,0.410099386045499
4.19999999999999,-0.837955519079595,0.478011120842749
4.21249999999999,-0.840939932923825,0.47273600298789
4.22499999999999,-0.715647824080212,0.395879956350475
4.23749999999999,-0.480743229776764,0.259889819953195
4.24999999999999,-0.17168079821433,0.086045352710768
4.26249999999999,0.164638439628509,-0.0988708498025741
4.27499999999999,0.477008384225278,-0.266699025178513
4.28749999999999,0.717674939758495,-0.392182307937248
4.29999999999999,0.849690022384424,-0.456798949618473
4.3125,0.852539121709982,-0.451450368332025
4.325,0.725354939735532,-0.37776734829097
4.3375,0.48711341431631,-0.2477238335765
4.35,0.173782516577075,-0.0816994792806601
4.3625,-0.167068840918158,0.0946990872159712
4.375,-0.483548692705496,0.254621633230502
4.3875,-0.727290319529256,0.374022126081108
4.4,-0.860882140185526,0.435298183486917
4.4125,-0.863595443102143,0.429879852462702
4.425,-0.734604240438547,0.359417185912581
4.4375,-0.493168019935042,0.23540184134924
4.45,-0.175784996805056,0.0773115600784825
4.4625,0.169395542546175,-0.0904717127112953
4.475,0.489782334037074,-0.242387747493202
4.4875,0.73644431318196,-0.355625600517876
4.5,0.871530511541975,-0.413525379562877
4.5125,0.874106474612886,-0.408041653192832
4.525,0.743390027582279,-0.340843342989488
4.5375,0.498921385234975,-0.222936242765216
4.55,0.177664273760779,-0.0728698149631757
4.5625,-0.17160912714979,0.0861843121522425
4.575,-0.495709861123088,0.230003410025105
4.5875,-0.74513165325057,0.337007556771144
4.6,-0.881631520694486,0.391495775447135
4.6125,-0.884070485937836,0.38594936998324
4.625,-0.751707482491632,0.322057815761251
4.6375,-0.50436282259966,0.210330924473193
4.65,-0.179436959717308,0.0683830567249462
4.66250000000001,0.173715838664217,-0.0818459829153055
4.67500000000001,0.501326546913155,-0.217478022525178
4.68750000000001,0.753355155110698,-0.318177601538895
4.70000000000001,0.891180211107579,-0.369219560396236
4.71250000000001,0.893480010776708,-0.363613935454032
4.72500000000001,0.759556283947499,-0.303067678179896
4.73750000000001,0.509483213317582,-0.197590813433333
4.75000000000001,0.181100468542295,-0.0638517680113766
4.76250000000001,-0.175722154370257,0.0774571919650913
4.77500000000001,-0.506620244019941,0.204808801957508
4.78750000000001,-0.761108286669683,0.299148489083815
4.80000000000001,-0.900169292573678,0.346709712504911
4.81250000000001,-0.90232808947479,0.341047337911522
4.82500000000001,-0.766926145615418,0.283885789946359
4.83750000000001,-0.514281244644722,0.184724853472284
4.85000000000001,-0.182647313231017,0.0592797681822795
4.86250000000001,0.177607485266641,-0.0730157719927766
4.87500000000001,0.511609478960984,-0.192014890249751
4.88750000000001,0.768377341145469,-0.279927712744461
4.90000000000001,0.908588488662388,-0.32397937490546
4.91250000000001,0.910603762764845,-0.318263945561344
4.92500000000001,0.773805513216028,-0.264519230414639
4.93750000000001,0.518758736126562,-0.171744980430856
4.95000000000001,0.184070810074548,-0.0546719547747817
4.96250000000001,-0.179382761739738,0.0685296355302397
4.97500000000001,-0.51626851856353,0.179097201197605
4.98750000000001,-0.77515820272467,0.260529832456972
5.00000000000001,-0.9164293402263,0.301043442375512
5.01250000000002,-0.918298670647055,0.295278648487625
5.02500000000002,-0.780197542729505,0.244992536015575
