"Time [ms]","InducedVoltage(Cos_Winding) [mV]","InducedVoltage(Sin_Winding) [mV]"
0,-553.661489989251,963.084733755605
0.0125,-484.703481555914,833.38927224148
0.025,-415.745473122576,703.693810727354
0.0375,-282.347599501053,467.505401964441
0.05,-104.26523734378,161.133103967117
0.0625,91.6923397697272,-168.598364649291
0.075,275.675630180371,-471.47130370081
0.0875,419.36747300166,-701.542257830581
0.1,500.32634916408,-824.109663688687
0.1125,505.495206515939,-820.950868985599
0.125,433.29840475833,-693.024840356072
0.1375,294.010698594129,-460.271367927122
0.15,108.280844859718,-158.46186826868
0.1625,-95.899181571663,166.24432067407
0.175,-287.437137515218,464.396741808309
0.1875,-436.866972754749,690.786347848704
0.2,-520.881863480216,811.281536176534
0.2125,-525.969924349332,807.993514627395
0.225,-450.583248558809,681.924480489453
0.2375,-305.485937419834,452.736595849942
0.25,-112.230389074141,155.691517990895
0.2625,100.04785105347,-163.781964348155
0.275,299.020483623148,-457.031633895008
0.2875,454.092999226343,-679.594860289661
0.3,541.108166139855,-797.937651364332
0.3125,546.113129336031,-794.522857033451
0.325,467.580300694397,-670.387272561806
0.3375,316.7671786044,-444.915936878575
0.35,116.107807806213,-152.820536071099
0.3625,-104.133629763598,161.221511139357
0.375,-310.410973651391,449.372267502876
0.3875,-471.030756903797,667.965616068801
0.4,-560.993056762215,784.087208772922
0.4125,-565.908116291393,780.546210411789
0.425,-484.279058900651,658.421940223305
0.4375,-327.848419130572,436.812115043407
0.45,-119.907201281915,149.847301459403
0.4625,108.149724345097,-158.545451187639
0.475,321.608413577965,-441.429051955706
0.4875,487.666357290559,-655.916306387554
0.5,580.518301078282,-769.73675851131
0.5125,585.342361706245,-766.073945214637
0.525,500.668298674542,-646.03823672375
0.5375,338.720786972243,-428.435560602437
0.55,123.637450580263,-146.791613149319
0.5625,-112.102479545476,155.781288983421
0.575,-332.598202830137,433.204529629949
0.5875,-503.99354144814,643.450331503601
0.6,-599.674674798359,754.903206477961
0.6125,-604.40381531244,751.119253755985
0.625,-516.745308785027,633.253937830227
0.6375,-349.375699537777,419.785937833879
0.65,-127.286250005146,143.640361876325
0.6625,115.982106321208,-152.914118644439
0.675,343.376168546099,-424.708236072129
0.6875,520.00038630776,-630.582314620581
0.7,618.45241319923,-739.594822828953
0.7125,623.087389225928,-735.695601186311
0.725,532.492410394724,-620.070096712555
0.7375,359.81539771897,-410.876246947154
0.75,130.855560169914,-140.396138208735
0.7625,-119.784968742799,149.95097055374
0.775,-353.942900259231,415.95034914841
0.7875,-535.679367151782,617.313654301846
0.8,-636.843522088879,723.823109920931
0.812500000000001,-641.3792377057,719.807421658948
0.825000000000001,-547.907904842496,606.49512990701
0.837500000000001,-370.028770854915,401.705799413916
0.850000000000001,-134.340762321466,137.061194828284
0.862500000000001,123.513871059322,-146.891721070482
0.875000000000001,364.280543019375,-406.9224830354
0.887500000000001,551.027762438174,-603.662725835752
0.900000000000001,654.83449998215,-707.592616698152
0.912500000000001,659.267732634383,-703.464771386031
0.925000000000001,562.977647033003,-592.53468236198
0.937500000000001,380.0035659392,-392.277177324756
0.950000000000001,137.750931607827,-133.645663014951
0.962500000000001,-127.170302169899,143.74507724771
0.975000000000001,-374.393977628131,397.640075384861
0.987500000000001,-566.025682234332,589.624926347884
1,-672.409915957818,690.912215938217
1.0125,-676.737392782585,686.672137015289
1.025,-577.690633364433,578.196914412372
1.0375,-389.744080594985,382.605091021977
1.05,-141.058895237314,130.1382910338
1.0625,130.742585158325,-140.504036759175
1.075,384.269138782212,-388.105292958345
1.0875,580.661604081427,-575.211444984772
1.1,689.557674774115,-673.791659573015
1.1125,693.776114829889,-669.44466950397
1.125,592.032865322643,-563.493403078373
1.1375,399.23197195778,-372.684357164296
1.15,144.283363273288,-126.55166681284
1.1625,-134.231071667884,137.172601410565
1.175,-393.899268639999,378.324008629427
1.1875,-594.928114313107,560.431764658785
1.2,-706.265861577543,656.245722653545
1.2125,-710.373841558244,651.794624611758
1.225,-606.001541832222,548.435375665138
1.2375,-408.467007691561,362.534502958016
1.25,-147.41552811748,122.885260575201
1.2625,137.637844503346,-133.756490406281
1.275,403.272477896135,-368.300906088973
1.2875,608.820061100074,-545.30370481497
1.3,722.527536552868,-638.288663249788
1.3125,726.522066373568,-633.737024650202
1.325,619.586871916764,-533.034015258469
1.3375,417.446894860739,-352.155435465193
1.35,150.457516285032,-119.142718818217
1.3625,-140.950480071921,130.250650920397
1.375,-412.400349354733,358.051218722454
1.3875,-622.326428005744,529.833934576697
1.4,-738.336092857768,619.933390720851
1.4125,-742.216375858551,615.282749195274
1.425,-632.781619920101,517.294658151152
1.4375,-426.166513533815,341.5597436604
1.45,-153.404357005158,115.326399464348
1.4625,144.179925686545,-126.671367665203
1.475,421.264844074656,-347.575840537687
1.4875,635.442523968613,-514.029795747464
1.5,753.681573478713,-601.186547226069
1.5125,757.443350973611,-596.439371102472
1.525,645.58579452696,-501.235477273816
1.5375,434.613131794255,-330.740625083158
1.55,156.254980486199,-111.435251149093
1.5625,-147.317105123228,123.007558183979
1.575,-429.871035263258,336.883997295281
1.5875,-648.15976813217,497.901456847772
1.6,-768.549350153049,582.057712986751
1.6125,-772.192434282277,577.21785038179
1.625,-657.976609679845,484.854468258039
1.6375,-442.784910722685,319.714468432675
1.65,-159.004080062752,107.47204562517
1.6625,150.361113871229,-119.26945889874
1.675,438.20016515138,-325.97594835874
1.6875,660.465571146624,-481.453653311228
1.7,782.9311855026,-562.559772788529
1.7125,786.449578678646,-557.629966380863
1.725,669.947144637673,-468.165217564435
1.7375,450.677365598891,-308.485020680551
1.75,161.64750353675,-103.437288095338
1.7625,-153.308648070542,115.447880673991
1.775,-446.24989908449,314.858746699894
1.7875,-672.351399971247,464.705641808794
1.8,-796.811646250648,542.705224198262
1.8125,-800.205853527128,537.689788659399
1.825,-681.492591476121,451.181080805043
1.8375,-458.280137386326,297.063143078259
1.85,-164.198649923124,99.3478979485646
1.8625,156.163571470442,-111.561571183315
1.875,454.01516992979,-303.544497501787
1.8875,683.80853671315,-447.662738237259
1.9,810.189955156658,-522.513104182079
1.9125,813.453826895948,-517.413550075706
1.925,692.60991055352,-433.916930799144
1.9375,465.593672572144,-285.455682695936
1.95,166.642588153661,-95.1936939038716
1.9625,-158.916151415382,107.601252733484
1.97499999999999,-461.49469719972,292.041855748971
1.98749999999999,-694.832489885539,430.342113996982
1.99999999999999,-823.056660628979,501.994635607775
2.01249999999999,-826.192066529589,496.814781078594
2.02499999999999,-703.290114351497,416.383562100563
2.03749999999999,-472.618809428229,273.671200428964
2.04999999999999,-168.980198172346,90.9775697173548
2.06249999999999,161.564355124513,-103.575202828317
2.07499999999999,468.687418984814,-280.359465997213
2.08749999999999,705.422543117436,-412.750781434085
2.09999999999999,835.406872239969,-481.161663629933
2.11249999999999,838.410344625316,-475.904301375603
2.12499999999999,713.528390809828,-398.585337991024
2.13749999999999,479.34905027453,-261.714814330635
2.14999999999999,171.212765534302,-86.7034372883849
2.16249999999999,-164.117465620077,99.4840930879439
2.17499999999999,-475.578891863951,268.495995044149
2.18749999999999,-715.572089000978,394.902743293193
2.19999999999999,-847.232105746615,460.025060124788
2.21249999999999,-850.104548262008,454.694951116095
2.22499999999999,-723.307701262926,380.531995456581
2.23749999999999,-485.774911026445,249.592661110076
2.24999999999999,-173.340843861763,82.3752527970512
2.26249999999999,166.567656156176,-95.330913553065
2.27499999999999,482.174072342489,-256.464206404847
2.28749999999999,725.266679824276,-376.802578833137
2.29999999999999,858.519597104066,-438.59716220211
2.31249999999999,861.25680645217,-433.195860386723
2.32499999999999,732.640406873624,-362.241199678487
2.33749999999999,491.879216853248,-237.305794221514
2.34999999999999,175.355342319264,-77.999399409103
2.36249999999999,-168.909368911881,91.1155868575147
2.37499999999999,-488.464598308725,244.270900432557
2.38749999999999,-734.497096413281,358.464446290308
2.39999999999999,-869.260709876167,416.891320629382
2.41249999999999,-871.85857814048,411.423217481919
2.42499999999999,-741.503278222055,343.724809637856
2.43749999999999,-497.675051841393,224.872369412557
2.44999999999999,-177.255278038805,73.5682160207117
2.46249999999999,171.139129714015,-86.8407623860529
2.47499999999999,494.442261351806,-231.922800311932
2.48749999999999,743.262936193666,-339.900241281358
2.49999999999999,879.447860019296,-394.92480903629
2.51249999999999,881.907785690959,-389.393884593836
2.52499999999999,749.895181443347,-324.992693726772
2.53749999999999,503.167691610557,-212.305699571145
2.54999999999999,179.027597876834,-69.0886006108088
2.56249999999999,-173.256737615824,82.511515260002
2.57499999999999,-500.103032675369,219.431118632441
2.58749999999999,-751.558852384274,321.125274135312
2.59999999999999,-889.079634983062,372.712970935884
2.61249999999999,-891.400956093514,367.12392979896
2.62499999999999,-757.812783249039,306.05908723048
2.63749999999999,-508.340165812439,199.604195060336
2.64999999999999,-180.716662056482,64.5726282122982
2.66249999999999,175.287011031146,-78.1391694821667
2.67499999999999,505.448508780717,-206.799053935921
2.68749999999999,759.380537104001,-302.151206243466
2.69999999999999,898.154511355553,-350.270411047686
2.71249999999999,900.336060162755,-344.624633373181
2.72499999999999,765.256354464551,-286.932998877
2.73749999999999,513.190329660196,-186.777500057678
2.74999999999999,182.28423765465,-60.0169347186255
2.76249999999999,-177.197172606245,73.7155683332983
2.77499999999999,-510.481527882658,194.043953929737
2.78749999999999,-766.723143350255,282.986128075181
2.79999999999999,-906.665139163468,327.606417096167
2.81249999999999,-908.703428252462,321.907973789292
2.82499999999999,-772.221878915452,267.626051683974
2.83749999999999,-517.714318112291,173.830462453348
2.84999999999999,-183.733610903984,55.420923371168
2.86249999999999,178.984214296529,-69.2403349433388
2.87499999999999,515.206285400057,-181.167841435478
2.88749999999999,773.580750498593,-263.641904948089
2.89999999999999,914.60198706699,-304.735330324762
2.91249999999999,916.496093150429,-298.986288222695
2.92499999999999,778.694124184974,-248.149585278176
2.93749999999999,521.912855898075,-160.774887999865
2.94999999999999,185.06195733969,-50.788966674415
2.96249999999999,-180.664221929105,64.7239549542007
2.97499999999999,-519.582711179676,168.172623581675
2.98749999999999,-779.960953316508,244.134383613451
2.99999999999999,-921.95714522574,281.668766381036
3.01249999999999,-923.706055051335,275.876015763928
3.02499999999999,-784.668493076216,228.516143682488
3.03749999999999,-525.780686656146,147.616431888703
3.04999999999999,-186.27230556894,46.1246050625711
3.06249999999999,182.23211286531,-60.1647258852776
3.07499999999999,523.632913152265,-155.068695262488
3.08749999999999,785.836248477049,-224.471666141559
3.09999999999999,928.726266952869,-258.428109410348
3.11249999999999,930.328040781608,-252.592751923002
3.12499999999999,790.145564113384,-208.739476520034
3.13749999999999,529.310646961281,-134.368936975254
3.14999999999999,187.375123816561,-41.4335960332416
3.16249999999999,-183.687545913521,55.5699459314196
3.17499999999999,-527.352498007462,141.869805465173
3.18749999999999,-791.209498323216,204.667269125356
3.19999999999999,-934.909834522666,235.027741230493
3.21249999999999,-936.361331410754,229.154187426152
3.22499999999999,-795.127585629879,188.834341810137
3.23749999999999,-532.507530531551,121.03661532671
3.24999999999999,-188.353018329114,36.718071867791
3.26249999999999,185.019625997426,-50.9390909637035
3.27499999999999,530.741557195417,-128.584494656491
3.28749999999999,796.085304919338,-184.738215565736
3.29999999999999,940.502978896646,-211.481415490197
3.31249999999999,941.80729611258,-205.572671403778
3.32499999999999,799.609595117674,-168.814095992678
3.33749999999999,535.375293227159,-107.62940603525
3.34999999999999,189.211375027589,-31.9778111106734
3.36249999999999,-186.234964754554,46.279523035755
3.37499999999999,-533.798557404227,115.220230585866
3.38749999999999,-800.463350815984,164.692134493407
3.39999999999999,-945.506687617937,187.802096672752
3.41249999999999,-946.663401559358,181.862449725064
3.42499999999999,-803.586838088809,148.683415496535
3.43749999999999,-537.905475555637,94.1538318924284
3.44999999999999,-189.952958821201,27.2158609933708
3.46249999999999,187.33862053129,-41.5880682806569
3.47499999999999,536.512118701551,-101.78159367833
3.48749999999999,804.342441580903,-144.543068601488
3.49999999999999,949.915494327946,-164.002827735525
3.51249999999999,950.924640733213,-158.036047012371
3.52499999999999,807.05572022025,-128.45872057105
3.53749999999999,540.092486465924,-80.617702014784
3.54999999999999,190.578588886302,-22.4365137005854
3.56249999999999,-188.323535534788,36.8716070050764
3.57499999999999,-538.896535369443,88.2777232575006
3.58749999999999,-807.708901368006,124.300684495809
3.59999999999999,-953.722465150751,140.09896872949
3.61249999999999,-954.580049340683,134.108134948577
3.62499999999999,-810.017534165732,108.151697721854
3.63749999999998,-541.937471249771,67.0294458870818
3.64999999999998,-191.074153746983,17.6463663063157
3.66249999999998,189.187724187268,-32.1320508087664
3.67499999999998,540.937851320279,-74.7169934323126
3.68749999999998,810.561027402767,-103.980290364218
3.69999999999998,956.922606719387,-116.106310393088
3.71249999999998,957.627908758788,-110.096392591996
3.72499999999998,812.463196744872,-87.7805349129543
3.73749999999998,543.436213199387,-53.3996328614652
3.74999999999998,191.450357140062,-12.8412231837424
3.76249999999998,-189.931445970174,27.3697742033808
3.77499999999998,-542.631493235725,61.1114303205148
3.78749999999998,-812.90038113992,83.5937709808159
3.79999999999998,-959.514356623864,92.0428081784421
3.81249999999998,-960.069504730123,86.0176499831009
3.82499999999998,-814.394235247886,67.353607502342
3.83749999999998,-544.596287209402,39.7404990900677
3.84999999999998,-191.707038506475,8.03126703521202
3.86249999999998,190.556180189777,-22.5915384581657
3.87499999999998,543.980111211398,-47.4688108482561
3.88749999999998,814.726572504349,-63.158471053618
3.89999999999998,961.504202919911,-67.9242033266598
3.91249999999998,961.907818652069,-61.8879938105768
3.92499999999998,815.812236002436,-46.8878507724119
3.93749999999998,545.414976784321,-26.055137991089
3.94999999999998,191.845834007822,-3.21467842025439
3.96249999999999,-191.055232012222,17.8002345731077
3.97499999999999,-544.99254618424,33.7950543747205
3.98749999999999,-816.040541812717,42.6859366972635
3.99999999999999,-962.892546569434,43.7644354276897
4.01249999999999,-963.144963180342,37.7195340316733
4.02499999999999,-816.71900189559,26.3900216697946
4.03749999999999,-545.890942654299,12.3545520906676
4.04999999999999,-191.867734601775,-1.60068383837474
4.06249999999999,191.440978405514,-12.9999301774051
4.07499999999999,545.662065725542,-20.1037272375526
4.08749999999999,816.844303505935,-22.1841496926044
4.09999999999999,963.675295829535,-19.5756168674478
4.11249999999999,963.774360103288,-13.5255736390889
4.12499999999999,817.119318377041,-5.87606017357654
4.13749999999999,546.019620563646,1.35616019850288
4.14999999999999,191.765333216223,6.41927143775632
4.16249999999999,-191.704986530203,8.1889534076006
4.17499999999999,-545.989077606271,6.39684483943271
4.18749999999999,-817.135296837168,1.66760243807221
4.19999999999999,-963.849272419832,-4.6271984888198
4.21249999999999,-963.798307329126,-10.6785194043636
4.22499999999999,-816.994510761785,-14.642648471981
4.23749999999999,-545.804857457464,-15.0658243470208
4.24999999999999,-191.537465017029,-11.2315935147872
4.26249999999999,191.846915911512,-3.37488640389017
4.27499999999999,545.972429181508,7.31323460626743
4.28749999999999,816.902823304308,18.8521866314024
4.29999999999999,963.412973301613,28.8280509411325
4.3125,963.208372814897,34.8753024893691
4.325,816.351573219885,35.150940531738
4.3375,545.243027491954,28.766110902002
4.35,191.186468171288,16.0390290078722
4.3625,-191.867419472838,-1.44600119242563
4.375,-545.602245706726,-21.0221851473323
4.3875,-816.156380096272,-39.3557603797664
4.4,-962.363397558134,-53.0074362489094
4.4125,-962.006224651912,-59.047279586673
4.425,-815.193184748327,-55.6366047219418
4.4375,-544.330488298449,-42.4440589844349
4.45,-190.727647902478,-20.832364772628
4.4625,191.769752170099,6.26309358591075
4.475,544.88863917957,34.7125697311821
4.4875,814.892231587244,59.8338677774318
4.5,960.706923796031,77.1507770655545
4.5125,960.197830351233,83.1788537470158
4.525,813.521898452002,76.083713386931
4.5375,543.084621689339,56.0952266332721
4.55,190.136371516043,25.6118085173228
4.5625,-191.544898104483,-11.0755110601931
4.575,-543.834261750363,-48.3809019639862
4.5875,-813.113787661762,-80.2699458196314
4.6,-958.447775622049,-101.243243535299
4.6125,-957.788393870099,-107.256900071434
4.625,-811.339903359541,-96.480195080674
4.6375,-541.498748424471,-69.7124096228357
4.65,-189.429984770058,-30.3764773219549
4.66250000000001,191.201739899468,15.8788242217738
4.67500000000001,542.440260940221,62.0157253640911
4.68750000000001,810.827660866767,100.658365792572
4.70000000000001,955.587369843514,125.273066871186
4.71250000000001,954.778372563185,131.268239895806
4.72500000000001,808.648355253519,116.819785781246
4.73750000000001,539.569067701076,83.2848998695097
4.75000000000001,188.606384915671,35.1258850215748
4.76250000000001,-190.745984703046,-20.6752484227955
4.77500000000001,-540.695414954649,-75.6146947701265
4.78750000000001,-808.034580696078,-120.983672575233
4.80000000000001,-952.12620120817,-149.225194953988
4.81250000000001,-951.166917667388,-155.199231074358
4.82500000000001,-805.447303235511,-137.085931449712
4.83750000000001,-537.296012662049,-96.8061687824031
4.85000000000001,-187.662546185266,-39.851283307002
4.86250000000001,190.159931369198,25.4575416526786
4.87500000000001,538.623852344917,89.1681246592796
4.88750000000001,804.727330758034,141.23318717517
4.90000000000001,948.061666397588,173.083761334546
4.91250000000001,946.951565541137,179.032202430868
4.92500000000001,801.730592373628,157.267397368849
4.93750000000001,534.68724823848,110.264216757054
4.95000000000001,186.595002311878,44.5464739928232
4.96250000000001,-189.456285244567,-30.2225178824816
4.97500000000001,-536.205255246479,-102.66432253356
4.98750000000001,-800.909014457568,-161.392129980587
5.00000000000001,-943.39385463569,-196.831320359093
5.01250000000002,-942.13271327719,-202.749635090533
5.02500000000002,-797.511106264189,-177.343252724169
5.03750000000002,-531.73160883991,-123.652550807593
5.05000000000002,-185.411268319829,-49.2174183483217
5.06250000000002,188.634227083071,34.9711410725768
5.07500000000002,533.442012066274,116.091391344555
5.08750000000002,796.58481112618,181.448935705262
5.10000000000002,938.125647533415,220.451389110034
5.11250000000002,936.718441064822,226.33554279852
5.12500000000002,792.785404120978,197.307869883671
5.13750000000002,528.444534954396,136.961017740536
5.15000000000002,184.112552715475,53.8547450838175
5.16250000000002,-187.692205164936,-39.6958494377389
5.17500000000002,-530.343778478208,-129.445134934285
5.18750000000002,-791.753888554474,-201.387239033097
5.20000000000002,-932.27106176556,-243.930952364202
5.21250000000002,-930.715782768179,-249.776919648737
5.22500000000002,-787.559752131951,-217.144108588568
5.23750000000002,-524.828903931076,-150.18463234253
