"Time [ms]","InducedVoltage(Cos_Winding) [mV]","InducedVoltage(Sin_Winding) [mV]"
0,966.219913734046,-559.030882394165
0.0125,840.971732050593,-480.942959765898
0.025,715.723550367139,-402.855037137631
0.0375,480.836111135298,-264.563765013951
0.05,171.770078690911,-87.7059137314415
0.0625,-164.600856624797,100.48525819787
0.075,-477.034395044839,271.348886837692
0.0875,-717.787767560346,399.172595261993
0.1,-849.878454013305,465.060935895635
0.1125,-852.780642173592,459.729407886527
0.125,-725.606995146272,384.798979537938
0.1375,-487.332210950259,252.440932675176
0.15,-173.912986734804,83.3744192689207
0.1625,167.068310905773,-96.3337478816765
0.175,483.697314986262,-259.315352655714
0.1875,727.581612953865,-381.068090072911
0.2,861.285597160129,-443.626549303284
0.2125,864.052352364675,-438.22299431584
0.225,735.041348189557,-366.502867654759
0.2375,493.511842216908,-240.150206293257
0.25,175.951372000374,-78.9907521498101
0.2625,-169.437104497317,92.1180960274612
0.275,-490.053107298859,247.11784761225
0.2875,-736.920246227193,362.722303617572
0.3,-872.146457776187,421.908573648676
0.3125,-874.776857898302,416.436154622065
0.325,-744.006032292139,347.971412809846
0.3375,-499.377996453081,227.707684580682
0.35,-177.8768261356,74.5556985692066
0.3625,171.698932277203,-87.8477532778472
0.375,496.097849772395,-234.762011127863
0.3875,745.785843092404,-344.140352411398
0.4,882.45508866408,-399.920834256865
0.4125,884.944168241386,-394.38379441192
0.425,752.49410398877,-329.215737891335
0.4375,504.930136622527,-215.120687956859
0.45,179.679880876186,-70.0697179193075
0.4625,-173.841189771825,83.5132177105883
0.475,-501.83130577851,222.255575408065
0.4875,-754.175931117895,325.342944025954
0.5,-892.199864111823,377.678201475053
0.5125,-894.548263945654,372.080653132045
0.525,-760.503109201603,310.251635877183
0.5375,-510.16188039706,202.399089670465
0.55,-181.384225912611,65.5466047550833
0.5625,175.885578219076,-79.1327899934193
0.575,507.241168231988,-209.607596316564
0.5875,762.090538805858,-306.338225169041
0.6,901.380195251184,-355.199372396014
0.6125,903.585280097625,-349.544042262166
0.625,768.040336333975,-291.094656144646
0.6375,515.066381118744,-189.548592367609
0.65,182.970309073744,-60.982683778496
0.6625,-177.814502783141,74.6998468305807
0.675,-512.330339094627,196.829242125376
0.6875,-769.523935897331,287.143546004312
0.7,-909.993529919721,332.497339980679
0.7125,-912.058888117024,326.788841408547
0.725,-775.088876458434,271.755511359589
0.7375,-519.655423030025,176.580804456618
0.75,-184.438500001731,56.3762538291338
0.7625,179.626349690931,-70.2205504769133
0.775,517.106799029918,-183.93037812461
0.7875,776.470438504653,-267.764582358774
0.8,918.038101453847,-309.585900481801
0.812500000000001,919.958717225855,-303.825886810107
0.825000000000001,781.652740097414,-252.242456542129
0.837500000000001,523.915832807589,-163.49940552814
0.850000000000001,185.788866385015,-51.7334771425931
0.862500000000001,-181.327479546067,65.6956538067577
0.875000000000001,-521.546292460051,170.910082307553
0.887500000000001,-782.938773607306,248.219520413912
0.900000000000001,-925.503611992387,286.475969828655
0.912500000000001,-927.27856920095,280.669776174516
0.925000000000001,-787.723407536555,232.567825152797
0.937500000000001,-527.837619492869,150.312698773865
0.950000000000001,-187.033772961966,47.058744143777
0.962500000000001,182.922814162609,-61.1315872643269
0.975000000000001,525.661758657684,-157.780744534058
0.987500000000001,788.907396408707,-228.513622345277
1,932.38140105225,-263.183090434388
1.0125,934.00837694914,-257.332618113436
1.025,793.292284809847,-212.74369187457
1.0375,531.433965004517,-137.031566091545
1.05,188.142511355017,-42.3544325849776
1.0625,-184.394610896918,56.5266075073343
1.075,-529.445529077942,144.552405353632
1.0875,-794.370689112473,208.661440947374
1.1,-938.666310135523,239.72185513314
1.1125,-940.1442667951,233.832564390496
1.125,-798.35469282905,192.786290668094
1.1375,-534.687016158015,123.661621401611
1.15,-189.139054078496,37.6232045971047
1.1625,185.749257654419,-51.8853660152301
1.175,532.890960027206,-131.231514641981
1.1875,799.329913760704,-188.676553728118
1.2,944.354899522756,-216.110246949357
1.2125,945.684379915411,-210.185485565162
1.225,802.915554368186,-172.708051875153
1.2375,537.603329964806,-110.217420535042
1.25,190.017206865088,-32.8696159694599
1.2625,-186.992072288691,47.2116672596498
1.275,-535.990537712212,117.829105957589
1.2875,-803.78908332815,168.575682763006
1.3,-949.448778901827,192.364118187265
1.3125,-950.629431963891,186.408987586204
1.325,-806.970387861491,152.52301060679
1.3375,-540.184310947628,96.7029599521701
1.35,-190.777502406857,28.0940184111463
1.3625,188.104625099705,-42.5068873533312
1.375,538.766234651982,-104.352405195363
1.3875,807.740959982377,-148.370407471008
1.4,953.949814563551,-168.499276759667
1.4125,954.98178967572,-162.515368535468
1.425,810.515156543483,-132.239640892611
1.4375,542.430881814565,-83.1297932451853
1.45,191.41724669288,-23.3019175572089
1.4625,-189.109276898823,37.7796726067142
1.475,-541.197956575133,90.8112496312243
1.4875,-811.186135633963,128.0699349137
1.5,-957.851706746599,144.525863246524
1.5125,-958.731892480309,138.517510038661
1.525,-813.562104028664,111.873981808011
1.5375,-544.32519355923,69.4994275525508
1.55,-191.936864638683,18.4941298877268
1.5625,189.992531648599,-33.0256540090892
1.575,543.295396931962,-77.2118355041722
1.5875,814.122184743474,-107.687556911783
1.6,961.145942509717,-120.460003030596
1.6125,961.876044888193,-114.430233394189
1.625,816.087372867607,-91.4362995798365
1.6375,545.877514645231,-55.8265823749661
1.65,192.330861629203,-13.6741733222206
1.6625,-190.75550578899,28.2518351317391
1.675,-545.045524922246,63.5637212008507
1.6875,-816.538613647226,87.2354080598742
1.7,-963.832150803477,96.316324390056
1.7125,-964.408807208959,90.2711215476347
1.725,-818.090811893183,70.9404751331183
1.7375,-547.087225744507,42.1178358538683
1.75,-192.596129131252,8.84481478480126
1.7625,191.394161205171,-23.4564818962997
1.775,546.445605393741,-49.8730206601715
1.7875,818.440247844426,-66.7309375952307
1.8,965.902960667238,-72.1138072777957
1.8125,966.329521684851,-66.056395408157
1.825,819.577581720562,-50.4020465481232
1.8375,547.946190780463,-28.3856802857807
1.85,192.757205223314,-4.01264273285293
1.8625,-191.921075013091,18.6497803821368
1.875,-547.50016228137,36.1527898190457
1.8875,-819.820102023218,46.184991165369
1.9,-967.369161227314,47.8692036618523
1.9125,-967.639681797109,41.8040923340951
1.925,-820.552418912733,29.8330771480125
1.9375,-548.460276669194,14.6366912926172
1.95,-192.792197513541,-0.819932472246238
1.9625,192.3201749974,-13.8303229351287
1.97499999999999,548.212887758059,-22.4124328969086
1.98749999999999,820.684379327016,-25.6136751028048
1.99999999999999,968.227133944284,-23.5974974213393
2.01249999999999,968.345066377226,-17.5265136797913
2.02499999999999,821.013038454262,-9.24966882773332
2.03749999999999,548.636675999918,-0.879387297227116
2.04999999999999,192.701466592594,5.6541656501028
2.06249999999999,-192.593746020495,9.00533968343655
2.07499999999999,-548.586881229338,8.65997705978188
2.08749999999999,-821.037330992016,5.02519522854847
2.09999999999999,-968.478290318198,-0.689107820369529
2.11249999999999,-968.442582715821,-6.76161383575224
2.12499999999999,-820.955876053186,-11.3423546430019
2.13749999999999,-548.471343188838,-12.8795970780645
2.14999999999999,-192.491048593801,-10.4853742070247
2.16249999999999,192.754797410935,-4.17221713553037
2.17499999999999,548.606333398074,5.09928580265096
2.18749999999999,820.879143756953,15.565423830289
2.19999999999999,968.120577122891,24.9764472708688
2.21249999999999,967.935787348041,31.0463524865972
2.22499999999999,820.368933404001,31.9263474443688
2.23749999999999,547.959401445069,26.629590959954
2.24999999999999,192.162574942095,15.3121034531121
2.26249999999999,-192.796385079529,-0.663155934734421
2.27499999999999,-548.283009867281,-18.8568256077197
2.28749999999999,-820.197799019532,-36.1470870199623
2.29999999999999,-967.149504308835,-49.2473258440261
2.31249999999999,-966.811316027852,-55.3110037617934
2.32499999999999,-819.279548629454,-52.4911889767229
2.33749999999999,-547.07878705856,-40.3624696260924
2.34999999999999,-191.714171290363,-20.124186589118
2.36249999999999,192.710861357876,5.49826350443897
2.37499999999999,547.616463522164,32.6013293041862
2.38749999999999,818.992187615926,56.7034686288834
2.39999999999999,965.564311646098,73.4857875778532
2.41249999999999,965.070695702023,79.537937291945
2.42499999999999,817.666979539014,73.018401991445
2.43749999999999,545.858908374611,54.0680161002619
2.44999999999999,191.136344835164,24.9250897649715
2.46249999999999,-192.495600564975,-10.3290752717771
2.47499999999999,-546.599639561076,-46.323840115319
2.48749999999999,-817.271168860229,-77.2229460954719
2.49999999999999,-963.366520596503,-97.6735837840551
2.51249999999999,-962.721553309397,-103.711324930378
2.52499999999999,-815.536504954812,-93.4970506645045
2.53749999999999,-544.313532159591,-67.7385642521441
2.54999999999999,-190.415810436274,-29.704496872797
2.56249999999999,192.152442464086,15.1518276943491
2.57499999999999,545.235018357729,60.0122719644482
2.58749999999999,815.036877215468,97.6905354695151
2.59999999999999,960.563063952526,121.796801710929
2.61249999999999,959.769381998101,127.815513215324
2.62499999999999,812.892770317633,113.913492134824
2.63749999999999,542.421218368193,81.364771092783
2.64999999999999,189.616939455905,34.4731248568452
2.66249999999999,-191.725103143769,-19.9689976989273
2.67499999999999,-543.523652617171,-73.6631938696337
2.68749999999999,-812.290090597404,-118.093370099023
2.69999999999999,-957.161464903363,-145.8413398081
2.71249999999999,-956.217998652586,-151.83909008601
2.72499999999999,-809.741419399032,-134.26039664344
2.73749999999999,-540.183764038595,-94.937591575594
2.74999999999999,-188.689512113714,-39.216682793497
2.76249999999999,191.160662908291,24.7687410873922
2.77499999999999,541.482671480582,87.2675009425901
2.78749999999999,809.030954212225,138.422252847462
2.79999999999999,953.158406726688,169.795266396156
2.81249999999999,952.063702514614,175.767439950746
2.82499999999999,806.084485609836,154.522250849657
2.83749999999999,537.602495167283,108.452906411074
2.84999999999999,187.638157274156,43.9364594739638
2.86249999999999,-190.460860550056,-29.5514298561853
2.87499999999999,-539.116736416978,-100.822654016193
2.88749999999999,-805.25865753282,-158.663242649194
2.89999999999999,-948.55258718099,-193.641730394957
2.91249999999999,-947.306829563293,-199.585122598469
2.92499999999999,-801.913475703436,-174.685605634813
2.93749999999999,-534.685092289511,-121.89877651553
2.94999999999999,-186.461985744565,-48.626194688756
2.96249999999999,189.64833750954,34.316298022051
2.97499999999999,536.381146702259,114.305465084675
2.98749999999999,800.994599106475,178.809276391437
2.99999999999999,943.343301096638,217.364660171178
3.01249999999999,941.949412099066,223.274874362744
3.02499999999999,797.230078025702,194.735891225976
3.03749999999999,531.429224286801,135.267829561788
3.04999999999999,185.167368653888,53.2862257961112
3.06249999999999,-188.716906905604,-39.0637725581652
3.07499999999999,-533.31049249393,-127.718582845501
3.08749999999999,-796.211764197774,-198.835163131191
3.09999999999999,-937.536920566912,-240.947302698857
3.11249999999999,-935.994178886724,-246.820303356538
3.12499999999999,-792.044476238977,-214.661633498893
3.13749999999999,-527.833853813226,-148.546271947542
3.14999999999999,-183.76790605611,-57.9124587247373
3.16249999999999,187.67257087207,43.7837346873796
3.17499999999999,529.904382505023,141.04827298563
3.18749999999999,790.921048709135,218.732519480998
3.19999999999999,931.142414007418,264.3761406594
3.21249999999999,929.449941593404,270.206374861532
3.22499999999999,786.364247278379,234.451058817936
3.23749999999999,523.907083015595,161.730853081005
3.24999999999999,182.246551024782,62.4996822721767
3.26249999999999,-186.500770824865,-48.4745619459767
3.27499999999999,-526.168746609558,-154.288555582802
3.28749999999999,-785.135820865509,-238.489489074291
3.29999999999999,-924.162485693225,-287.635362770247
3.31249999999999,-922.32549765349,-293.422102629351
3.32499999999999,-780.191194617638,-254.090229885315
3.33749999999999,-519.658405627193,-174.815453019684
3.34999999999999,-180.608301096347,-67.0480828986444
3.36249999999999,185.212769883587,53.1315512017985
3.37499999999999,522.10659887785,167.430654968001
3.38749999999999,778.859982352001,258.098898988454
3.39999999999999,916.604048961648,310.714763614787
3.41249999999999,914.623338910245,316.454594165016
3.42499999999999,773.526141526425,273.572012999845
3.43749999999999,515.080990032384,187.790666688663
3.44999999999999,178.858925007998,71.5561748865412
3.46249999999999,-183.81438711195,-57.7602145680947
3.47499999999999,-517.70534568212,-180.465440211165
3.48749999999999,-772.100993860638,-277.547820354688
3.49999999999999,-908.468669885534,-333.599974000481
3.51249999999999,-906.34571843703,-339.289612999191
3.52499999999999,-766.372475960785,-292.880592086885
3.53749999999999,-510.175185434672,-200.646155090288
3.54999999999999,-176.999701494814,-76.021967572405
3.56249999999999,182.299141073716,62.3515444825147
3.57499999999999,512.98781330697,193.392043442891
3.58749999999999,764.848031562855,296.820298623832
3.59999999999999,899.758096446802,356.274441594212
3.61249999999999,897.491365795953,361.908728713721
3.62499999999999,758.734645275355,312.006527910979
3.63749999999998,504.948692833308,213.375716373377
3.64999999999998,175.020312189369,80.4321076098217
3.66249999999998,-180.665734614373,-66.9021813481575
3.67499999999998,-507.944339604341,-206.195856873772
3.68749999999998,-757.109066442418,-315.903127773909
3.69999999999998,-890.475876476031,-378.721915058104
3.71249999999998,-888.066782364199,-384.296616557422
3.72499999999998,-750.617437871371,-330.930336648972
3.73749999999998,-499.398143395874,-225.967993185482
3.74999999999998,-172.93320305724,-84.7951347818712
3.76249999999998,178.918439870049,71.4123234856365
3.77499999999998,502.575002516593,218.865196115485
3.78749999999998,748.893032764769,334.786376068409
3.79999999999998,880.629092581063,400.926185951075
3.81249999999998,878.082674864477,406.439267538641
3.82499999999998,742.026191911145,349.644344492027
3.83749999999998,493.538063481896,238.416690471625
3.84999999999998,170.73999351766,89.1031252381193
3.86249999999998,-177.059859726427,-75.8773700349066
3.87499999999998,-496.887551798791,-231.392990300312
3.88749999999998,-740.206077456379,-353.455400324487
3.89999999999998,-870.23343580972,-422.877667579578
3.91249999999998,-867.549906383035,-428.32420552653
3.92499999999998,-732.969991989724,-368.135620651689
3.93749999999998,-487.370747081209,-250.716199902808
3.94999999999998,-168.437124423124,-93.3566231947543
3.96249999999999,175.081682689905,80.2886069966714
3.97499999999999,490.89481026693,243.780486672365
3.98749999999999,731.055789626489,371.900317154953
3.99999999999999,859.295488309278,444.563238950377
4.01249999999999,856.476222776396,449.941518436461
4.02499999999999,723.454059117873,386.398249678949
4.03749999999999,480.897803908752,262.858215873398
4.04999999999999,166.035945402667,97.5514448281359
4.06249999999999,-173.00457319621,-84.652681269865
4.07499999999999,-484.593417712329,-256.010781099141
4.08749999999999,-721.449436002373,-390.115397057929
4.09999999999999,-847.816605288129,-465.970569937396
4.11249999999999,-844.861676006259,-471.276489026921
4.12499999999999,-713.491087199034,-404.421582192979
4.13749999999999,-474.116584654136,-274.834014866069
4.14999999999999,-163.526307842562,-101.686730478531
4.16249999999999,170.816885065596,88.9649966084293
4.17499999999999,477.98675685796,268.082640698963
4.18749999999999,711.389560413586,408.086122372045
4.19999999999999,835.80245435789,487.085057432467
4.21249999999999,832.716270897491,492.316868101733
4.22499999999999,703.068572420884,422.185233142781
4.23749999999999,467.039403226129,286.637250047638
4.24999999999999,160.908530499452,105.753404610163
4.26249999999999,-168.518506624119,-93.2184778406367
4.27499999999999,-471.082428263158,-279.986260987068
4.28749999999999,-700.872662874277,-425.795901802568
4.29999999999999,-823.259180244918,-507.892115870754
4.3125,-820.041593598861,-513.043135786735
4.325,-692.201464060266,-439.680601744459
4.3375,-459.665251046181,-298.258209669795
4.35,-158.187071150273,-109.753592486273
4.3625,166.113001928717,97.4161362969403
4.375,463.869925357043,291.710495918382
4.3875,689.918677515581,443.23586971099
4.4,810.193776019709,528.373038360832
4.4125,806.847599707129,533.441254214914
4.425,680.899524725594,456.897989001886
4.4375,451.996798423438,309.683992350787
4.45,155.38084688482,113.689867654347
4.4625,-163.608024658477,-101.552832105762
4.475,-456.367891032642,-303.247198003919
4.4875,-678.528653699767,-460.394097827531
4.5,-796.620201284276,-548.518975932288
4.5125,-793.148531313444,-553.501042355605
4.525,-669.171211475271,-473.82563183007
4.5375,-444.054457976025,-320.921355362555
4.55,-152.46439349094,-117.545017396719
4.5625,160.993285367909,105.621400534998
4.575,448.583070250859,314.594196694167
4.5875,666.712239410975,477.25835071613
4.6,782.550000157472,568.319099646735
4.6125,778.955271562525,573.214163162272
4.625,657.024907864343,490.453071465315
4.6375,435.834612719629,331.957476340696
4.65,149.4560473497,121.330972992328
4.66250000000001,-158.280942454457,-109.62258090476
4.67500000000001,-440.520122841815,-325.742567288519
4.68750000000001,-654.480542783259,-493.826683219338
4.70000000000001,-767.989232314762,-587.763853242238
4.71250000000001,-764.273602363543,-592.567744310946
4.72500000000001,-644.466161639001,-506.777334724152
4.73750000000001,-427.336930405789,-342.782416995631
4.75000000000001,-146.355212316227,-125.044733978021
4.76250000000001,155.476012235354,113.562408369243
4.77500000000001,432.169740392378,336.682421121891
4.78750000000001,641.840506330179,510.087032621062
4.80000000000001,752.945648667974,606.840368591525
4.81250000000001,749.110151091423,611.550184744844
4.82500000000001,631.501313460266,522.781851366024
4.83750000000001,418.56830687469,353.391418661594
4.85000000000001,143.160097467319,128.677046940483
4.86250000000001,-152.563509205011,-117.422987340896
4.87500000000001,-423.559714260112,-347.421093566864
4.88750000000001,-628.7911540787,-526.023389332736
4.90000000000001,-737.425492215649,-625.533032211934
4.91250000000001,-733.472075276202,-630.14485835684
4.92500000000001,-618.130337947944,-538.452410191984
4.93750000000001,-409.538341029829,-363.778952077496
4.95000000000001,-139.873700013217,-132.221820856456
4.96250000000001,149.556365113969,121.210717135483
4.97500000000001,414.676934469909,357.935113281902
4.98750000000001,615.343917623356,541.625113931495
5.00000000000001,721.437237924308,643.827097873502
5.01250000000002,717.367685705086,648.336975956235
5.02500000000002,604.376865146038,553.781816732002
5.03750000000002,400.243515677204,373.92968200907
5.05000000000002,136.498002810758,135.687770750399
5.06250000000002,-146.455772924836,-124.924389632967
5.07500000000002,-405.528605537636,-368.217021403456
5.08750000000002,-601.509847612635,-556.885288862535
5.10000000000002,-704.991844090308,-661.709546329337
5.11250000000002,-700.812805738732,-666.117541009654
5.12500000000002,-590.240358295225,-568.760525659194
5.13750000000002,-390.700950466706,-383.845997454793
5.15000000000002,-133.039672792465,-139.066831271311
5.16250000000002,143.262943314024,128.557546121541
5.17500000000002,396.127292667331,378.267061288195
5.18750000000002,587.294933130332,571.788392898623
5.20000000000002,688.108619009147,679.177895865028
5.21250000000002,683.820424905365,683.478193120178
5.22500000000002,575.73398700383,583.378182074234
5.23750000000002,380.917242386921,393.524450385142
