"Time [ms]","InducedVoltage(Cos_Winding) [mV]","InducedVoltage(Sin_Winding) [mV]"
0,554.032070043388,-964.085890106024
0.0125,485.026684090441,-834.257597409701
0.025,416.021298137494,-704.429304713377
0.0375,282.532994326426,-467.995957813468
0.05,104.333038856239,-161.304519742046
0.0625,-91.7556726174392,168.772951475502
0.075,-275.858923254183,471.962820886891
0.0875,-419.644302948119,702.276699159241
0.1,-500.655117181718,824.97490912587
0.1125,-505.825714479893,821.81514812708
0.125,-433.580052938019,693.756345610086
0.1375,-294.200542823509,460.758932982409
0.15,-108.348774964887,158.631476164661
0.1625,95.9616191161639,-166.416158022477
0.175,287.626102775073,-464.886836839527
0.1875,437.149697127508,-691.516690908588
0.2,521.217666779026,-812.14221808497
0.2125,526.307340771556,-808.853033345317
0.225,450.870644076258,-682.651527966261
0.2375,305.679604874221,-453.221605723843
0.25,112.299603765084,-155.860424591061
0.2625,-100.113546717995,163.95421002271
0.275,-299.211011282945,457.517311791114
0.2875,-454.382189966086,680.321626800806
0.3,-541.450446161313,798.793443952853
0.3125,-546.456950031302,795.376955337948
0.325,-467.873221701608,671.110471655032
0.3375,-316.964048579511,445.39728047232
0.35,-116.178650411386,152.988797589369
0.3625,104.200706831695,-161.392217983485
0.375,310.605880418946,-449.856083194391
0.3875,471.324909082897,-668.688087734738
0.4,561.341375033102,-784.937117082094
0.4125,566.258062319866,-781.394696808692
0.425,484.576983653438,-659.139712628208
0.4375,328.048948932727,-437.291046728513
0.45,119.978596015074,-150.013766463747
0.4625,-108.217926678994,158.715982330885
0.475,-321.80707522662,441.909770270645
0.4875,-487.964867798226,656.632763583454
0.5,-580.872721906358,770.580707350463
0.5125,-585.698213516669,766.916180561605
0.525,-500.971145241181,646.751014268927
0.5375,-338.924422843118,428.910254364619
0.55,-123.710124087752,146.956022770524
0.5625,112.171916567639,-155.950313028874
0.575,332.800055112091,-433.681236486498
0.5875,504.297376126469,-644.161674666494
0.6,600.034558571911,-755.74024869118
0.6125,604.765226460001,-751.954862849512
0.625,517.053109505853,-633.960541762068
0.6375,349.58222226335,-420.256149791572
0.65,127.360274033615,-143.804358607507
0.6625,-116.052939961064,153.082299022422
0.675,-343.581027813632,425.180789099541
0.6875,-520.308941651956,631.28758955214
0.7,-618.817923570272,740.42523620779
0.7125,-623.454204568804,736.524026749298
0.725,-532.804653704724,620.770741754582
0.7375,-360.025267362823,411.342949170039
0.75,-130.930455967836,140.558081540116
0.7625,119.856520306086,-150.116858729931
0.775,354.151178470722,-416.419447069943
0.7875,535.99248487882,-618.013246214627
0.8,637.214398681431,-724.646248068574
0.812500000000001,641.751457992066,-720.628731931107
0.825000000000001,548.224452818685,-607.189368314128
0.837500000000001,370.24153947884,-402.168451449218
0.850000000000001,134.416672469612,-137.222185949709
0.862500000000001,-123.586709888037,147.056871853887
0.875000000000001,-364.491859823646,407.387831374102
0.887500000000001,-551.345277507642,604.355873166207
0.900000000000001,-655.210276314608,708.408162082671
0.912500000000001,-659.6446821154,704.278320467538
0.925000000000001,-563.298595271074,593.223066026877
0.937500000000001,-380.218751550689,392.735492376333
0.950000000000001,-137.827607362138,133.804201526653
0.962500000000001,127.244588371507,-143.909247534108
0.975000000000001,374.607567881902,-398.100179053618
0.987500000000001,566.34726942573,-590.311793605188
1,672.790211395296,-691.719861038835
1.0125,677.118919957686,-687.478106018017
1.025,578.014993296666,-578.878286215325
1.0375,389.961470140932,-383.057898619866
1.05,141.136361696133,-130.295243401331
1.0625,-130.817425864865,140.666119784476
1.075,-384.485509664156,388.561432926819
1.0875,-580.986538063875,575.890808545738
1.1,-689.942272314742,674.591173790243
1.1125,-694.161716427444,670.24197100674
1.125,-592.360546100195,564.166998158617
1.1375,-399.45196977724,373.132992357516
1.15,-144.361459646844,126.706498890109
1.1625,134.30674763629,-137.332982193423
1.175,394.117883702624,-378.774788536676
1.1875,595.256584167352,-561.104206884124
1.2,706.654477261352,-657.036483591253
1.2125,710.763338221731,-652.582883397256
1.225,606.33271204913,-549.101611673505
1.2375,408.689005243795,-362.977306405883
1.25,147.494710776073,-123.039118447435
1.2625,-137.714683903635,133.915166521046
1.275,-403.493227732766,368.747231799025
1.2875,-609.15198405431,545.968554399165
1.3,-722.919871456266,639.069967957085
1.3125,-726.91528714491,634.516036226662
1.325,-619.921044787461,533.692414779679
1.3375,-417.671113129582,352.593700716804
1.35,-150.537431661643,119.294532847816
1.3625,141.027564731575,-130.407895864378
1.375,412.623631597775,-358.492421327602
1.3875,622.661543420605,-530.490796201245
1.4,738.732137829576,-620.705571928952
1.4125,742.613412199173,-616.052751650025
1.425,633.118608208767,-517.944949894651
1.4375,426.39267546678,-341.992250172784
1.45,153.484819593096,-115.475764596828
1.4625,-144.257735778828,126.826205761001
1.475,-421.489941079977,348.011606504473
1.4875,-635.780655401286,514.678552271955
1.5,-754.081184097616,601.949352483623
1.5125,-757.843696466693,597.199902255267
1.525,-645.925755225377,501.877554787697
1.5375,-434.840734158172,331.167560369158
1.55,-156.335839000349,111.582943910353
1.5625,147.395858672623,-123.161321082793
1.575,430.097689311792,-337.313710900109
1.5875,648.500487362335,-498.541832564472
1.6,768.951990393422,-582.811097480607
1.6125,772.595530185708,-577.968308879287
1.625,658.31919743338,-485.4886760663
1.6375,443.013851381535,-320.135612803319
1.65,159.084960767403,-107.617686234847
1.6625,-150.440186558861,119.420473387372
1.675,-438.428660865477,326.400542913974
1.6875,-660.808339670975,482.086324908318
1.7,-783.336353596438,563.302943434103
1.7125,-786.855137458748,558.3702673509
1.725,-670.291574666038,468.790365817945
1.7375,-450.908403340613,308.900994546503
1.75,-161.728364820789,103.580171121712
1.7625,153.388738319841,-115.597163990276
1.775,446.479255177353,-315.277643937344
1.7875,672.696587629486,-465.329184171547
1.8,797.218900082546,-543.437807399796
1.8125,800.613921540953,-538.419606365746
1.825,681.83870523821,-451.797610580564
1.8375,458.512203289647,-297.472856923435
1.85,164.280708390428,-99.4886134991337
1.8625,-156.24468250437,111.709350822176
1.875,-454.246104203743,303.95715097897
1.8875,-684.155089709233,448.277378749981
1.9,-810.599662996228,523.234807431671
1.9125,-813.864140178165,518.132856658728
1.925,-692.957828077633,434.523918693244
1.9375,-465.826419260671,285.858537514795
1.95,-166.725370727533,95.3330529358159
1.9625,158.997631189313,-107.74696216073
1.97499999999999,461.727312800197,-292.448406099941
1.98749999999999,695.180580618831,-430.947157927988
1.99999999999999,823.468234590734,-502.705840226963
2.01249999999999,826.604266007732,-497.523494309445
2.02499999999999,703.640098205419,-416.980831744452
2.03749999999999,472.852135498591,-274.068063082514
2.04999999999999,169.062985878495,-91.1143775242489
2.06249999999999,-161.645354368588,103.718007172175
2.07499999999999,-468.92175082227,280.760474561088
2.08749999999999,-705.772184238403,413.346263629334
2.09999999999999,-835.820197147598,481.862021862541
2.11249999999999,-838.824161869292,476.602023011873
2.12499999999999,-713.879977498589,399.173465800428
2.13749999999999,-479.58384857024,262.105079187805
2.14999999999999,-171.294820233081,86.838470714711
2.16249999999999,164.198984482195,-99.6246887814197
2.17499999999999,475.813125529922,-268.890670819352
2.18749999999999,715.92385102855,-395.489537723265
2.19999999999999,847.646848117689,-460.714141955505
2.21249999999999,850.520033041567,-455.381262124272
2.22499999999999,723.659216302172,-381.111391871274
2.23749999999999,486.011348445471,-249.976851941961
2.24999999999999,173.423168215582,-82.5073913935833
2.26249999999999,-166.650286296989,95.4702398373647
2.27499999999999,-482.40871694266,256.85190531964
2.28749999999999,-725.619298426435,377.3798659167
2.29999999999999,-858.935465352399,439.274886773006
2.31249999999999,-861.672959558955,433.870912007521
2.32499999999999,-732.993739910338,362.811741097355
2.33749999999999,-492.115354902638,237.68465875839
2.34999999999999,-175.438350465072,78.1270094150368
2.36249999999999,168.992957489388,-91.2528338717243
2.37499999999999,488.700178796764,-244.652455781556
2.38749999999999,734.849820504922,-359.031532455646
2.39999999999999,869.677449057815,-417.557499684862
2.41249999999999,872.27523914394,-412.086682084672
2.42499999999999,741.857280573816,-344.284675636333
2.43749999999999,497.910867625132,-225.244881399254
2.44999999999999,177.338723492586,-73.6943358724192
2.46249999999999,-171.222148796786,86.9764734458376
2.47499999999999,-494.678888532866,232.297419828111
2.48749999999999,-743.616122633739,340.457409674104
2.49999999999999,-879.864951907684,395.579272507533
2.51249999999999,-882.324916572567,390.045371789212
2.52499999999999,-750.249156981946,325.542511588526
2.53749999999999,-503.404628002827,212.669846106473
2.54999999999999,-179.109186900528,69.2148342995271
2.56249999999999,173.33839398708,-82.6452576003256
2.57499999999999,500.339779507645,-219.799273838643
2.58749999999999,751.912784491955,-321.672750810265
2.59999999999999,889.4969315084,-373.355281996812
2.61249999999999,891.818509517633,-367.763331631639
2.62499999999999,758.16684389922,-306.598512316698
2.63749999999999,508.577327086924,-199.96190842654
2.64999999999999,180.799268675826,-64.6962239459442
2.66249999999999,-175.370556634993,78.2673982345066
2.67499999999999,-505.68459958893,207.162902015864
2.68749999999999,-759.734612823411,302.688709498246
2.69999999999999,-898.572181192809,350.90096698207
2.71249999999999,-900.753876958964,345.252258356664
2.72499999999999,-765.610560926724,287.461266608036
2.73749999999999,-513.427056066223,187.129117873342
2.74999999999999,-182.367124285025,60.1372534023059
2.76249999999999,177.28090701215,-73.8410513556717
2.77499999999999,510.71776667428,-194.399707869482
2.78749999999999,767.077213266945,-283.514160759054
2.79999999999999,907.082732344533,-328.224976666985
2.81249999999999,909.121107813833,-322.52341119191
2.82499999999999,772.575682047043,-268.144894464926
2.83749999999999,517.95063210804,-174.174719457961
2.84999999999999,183.816790255483,-55.5389588244132
2.86249999999999,-179.067995343895,69.366028364544
2.87499999999999,-515.443503572497,181.513814339446
2.88749999999999,-773.933656507994,264.160457046089
2.89999999999999,-915.019057878618,305.341684547169
2.91249999999999,-916.913024369044,299.589666663936
2.92499999999999,-779.047351537754,248.658072808124
2.93749999999999,-522.148576329584,161.111887097574
2.94999999999999,-185.144766388969,50.9044607851439
2.96249999999999,180.747418496711,-64.8472822622948
2.97499999999999,519.818883846667,-168.512935358624
2.98749999999999,780.313833219791,-244.639874462411
2.99999999999999,922.37358413873,-282.263995629602
3.01249999999999,924.12198234053,-276.467029005141
3.02499999999999,785.020657013694,-229.014034145037
3.03749999999999,526.015732903305,-147.946427490953
3.04999999999999,186.354804111831,-46.2364189650637
3.06249999999999,-182.31446602936,60.2844722278969
3.07499999999999,-523.868910281147,155.402625356802
3.08749999999999,-786.188476874685,224.966612200593
3.09999999999999,-929.141324277331,259.010200123506
3.11249999999999,-930.742557997061,253.171187809166
3.12499999999999,-790.497245775976,209.227242443679
3.13749999999999,-529.544953743558,134.691166928789
3.14999999999999,-187.457002637332,41.5435791208525
3.16249999999999,183.770259813903,-55.6877384124232
3.17499999999999,527.587374125333,-142.196762805477
3.18749999999999,791.560814393647,-205.15246065978
3.19999999999999,935.323312915789,-235.596214727838
3.21249999999999,936.774440243422,-229.71986915387
3.22499999999999,795.477981093805,-189.311028003945
3.23749999999999,532.740855499791,-121.351916586671
3.24999999999999,188.434484162206,-36.8255165193406
3.26249999999999,-185.102229431527,51.0545069154496
3.27499999999999,-530.975427206632,128.904006448743
3.28749999999999,-796.435016730991,185.212452156876
3.29999999999999,-940.915088736777,212.037364990928
3.31249999999999,-942.219251631665,206.126072575736
3.32499999999999,-799.957777299685,169.279337419838
3.33749999999999,-535.608348031357,107.937984286658
3.34999999999999,-189.292279613034,32.0827129670487
3.36249999999999,186.317243586242,-46.392337266628
3.37499999999999,534.03172680442,-115.532965971849
3.38749999999999,800.811530165165,-165.155513201342
3.39999999999999,945.917157126721,-188.345291056456
3.41249999999999,947.073438858673,-182.402711417698
3.42499999999999,803.933854524317,-149.13839253432
3.43749999999999,538.136786368661,-94.4547302205603
3.44999999999999,190.03452345153,-27.3192167008606
3.46249999999999,-187.42114841412,41.6988617413851
3.47499999999999,-536.74454313419,102.087329345813
3.48749999999999,-804.689123465155,144.99560801421
3.49999999999999,-950.323789308654,164.533251961781
3.51249999999999,-951.332129487256,158.563016180272
3.52499999999999,-807.401556290451,128.903528990206
3.53749999999999,-540.322355820399,80.9116711711276
3.54999999999999,-190.659025193364,22.5365181634818
3.56249999999999,188.4058627085,-36.9799726098349
3.57499999999999,539.127455054187,-88.575867356356
3.58749999999999,808.05352295677,-124.742424389056
3.59999999999999,954.128227188204,-140.616470339273
3.61249999999999,954.985255772185,-134.622480807606
3.62499999999999,810.360328728545,-108.584938151549
3.63749999999998,542.166137918191,-67.3164730786868
3.64999999999998,191.153205841459,-17.7430842648653
3.66249999999998,-189.268432923889,32.2372186653589
3.67499999999998,-541.167582879184,75.0080022957804
3.68749999999998,-810.903235115922,104.410933897108
3.69999999999998,-957.325678463798,116.610821578925
3.71249999999998,-958.030148810759,110.597515452633
3.72499999999998,-812.803042460316,88.202058237835
3.73749999999998,-543.663325938559,53.6790584910604
3.74999999999998,-191.529476469524,12.9361143627517
3.76249999999998,190.012131881455,-27.4725469786388
3.77499999999998,542.858881212059,-61.3943011047549
3.78749999999998,813.240560813612,-84.0136329072067
3.79999999999998,959.914420896164,-92.5342656889296
3.81249999999998,960.468657823354,-86.5055687483572
3.82499999999998,814.732114003854,-67.7643141741802
3.83749999999998,544.820663551023,-40.0114573118736
3.84999999999998,191.786003491708,-8.12395992092441
3.86249999999998,-190.636310306234,22.6911417221015
3.87499999999998,-544.206034341713,47.7447980534839
3.88749999999998,-815.064032917065,63.5671443177981
3.89999999999998,-961.901062436905,68.4022161410949
3.91249999999998,-962.303804102696,62.3626932950436
3.92499999999998,-816.147133728304,47.2872883999598
3.93749999999998,-545.638286768018,26.3195441446692
3.94999999999998,-191.923259333433,3.30450242439193
3.96249999999999,191.134130763807,-17.8977587095514
3.97499999999999,545.217328562264,-34.0639410792963
3.98749999999999,816.374878086146,-43.0829371690402
3.99999999999999,963.286147652911,-44.2293913847959
4.01249999999999,963.537732411824,-38.1811398267492
4.02499999999999,817.050954995534,-26.7786623132513
4.03749999999999,546.112317660284,-12.6112498147214
4.04999999999999,191.94437874978,1.51425200925761
4.06249999999999,-191.51958833963,13.0947178144101
4.07499999999999,-545.884370260706,20.3646320447085
4.08749999999999,-817.176077483549,22.570218838904
4.09999999999999,-964.06534886815,20.0272312677102
4.11249999999999,-964.163466823357,13.9742812865453
4.12499999999999,-817.448392574158,6.25296634550822
4.13749999999999,-546.238365164051,-1.10715067048679
4.14999999999999,-191.841556785975,-6.33462637705149
4.16249999999999,191.78366928835,-8.28175680373192
4.17499999999999,546.208822162383,-6.64999726090582
4.18749999999999,817.463727341191,-2.04218572431797
4.19999999999999,964.235563689843,4.1884691841414
4.21249999999999,964.183396608058,10.2433021133234
4.22499999999999,817.320012469853,14.2767442303601
4.23749999999999,546.021470621818,14.82417835367
4.24999999999999,191.612393762348,11.149959617847
4.26249999999999,-191.92417899407,3.4641580375512
4.27499999999999,-546.190521547919,-7.06741909291831
4.28749999999999,-817.227370503725,-18.488377004204
4.29999999999999,-963.795203549522,-28.4025462914053
4.3125,-963.589208038425,-34.4533134573123
4.325,-816.673258880201,-34.7964484674803
4.3375,-545.457230117813,-28.5320504382018
4.35,-191.260369575473,-15.9597147382996
4.3625,191.943814266906,1.35901662073401
4.375,545.81789096021,20.7834549500847
4.3875,816.477367894927,39.0035180811004
4.4,962.740994624358,52.5955374849072
4.4125,962.382517333712,58.6388070029817
4.425,815.511333124182,55.2929596930882
4.4375,544.541664234794,42.2172303188728
4.45,190.801235008458,20.7567307965013
4.4625,-191.845809493284,-6.1787058118419
4.475,-545.1013964854,-34.4820924911523
4.4875,-815.209682884036,-59.4925886484566
4.5,-961.079861969587,-76.7523409533282
4.5125,-960.569726345589,-82.7834658404387
4.525,-813.836053824637,-75.7516976434348
4.5375,-543.293347686751,-55.8766545865193
4.55,-190.208541044405,-25.5382630804458
4.5625,191.619840344846,10.9939489064884
4.575,544.044608191943,48.1577909717551
4.5875,813.427007104283,79.9404728796201
4.6,958.816214392083,100.857868487017
4.6125,958.156107455672,106.874895456688
4.625,811.649353712581,96.1597319907007
4.6375,541.705060673867,69.5006458223106
4.65,189.501098599224,30.3057346975508
4.66250000000001,-191.275726724329,-15.7998464545479
4.67500000000001,-542.648077099868,-61.8005469231089
4.68750000000001,-811.136759984304,-100.339728808173
4.70000000000001,-955.951057760834,-124.900885931683
4.71250000000001,-955.140903846475,-130.8997292762
4.72500000000001,-808.954661273442,-116.510444805771
4.73750000000001,-539.77157783605,-83.0811154825968
4.75000000000001,-188.676852538031,-35.056824161466
4.76250000000001,190.81961023005,20.5993269139897
4.77500000000001,540.899912728282,75.4057524318649
4.78750000000001,808.3397679136,120.676449494589
4.80000000000001,952.484705750641,148.866585035965
4.81250000000001,951.524079134905,154.84404062068
4.82500000000001,805.749486577817,136.787954522991
4.83750000000001,537.496094183742,96.6091389980939
4.85000000000001,187.731319289849,39.785423902208
4.86250000000001,-190.232337953959,-25.3833583530787
4.87500000000001,-538.825963202784,-88.9674593208975
4.88750000000001,-805.027899072721,-140.93736747969
4.90000000000001,-948.414780075482,-172.738373095933
4.91250000000001,-947.303384609741,-178.689996236842
4.92500000000001,-802.027414424204,-156.980149949919
4.93750000000001,-534.885984467284,-110.076211689378
4.95000000000001,-186.661190593757,-44.4834157710537
4.96250000000001,189.527448568376,30.1518318810465
4.97500000000001,536.404298580697,102.471068862836
4.98750000000001,801.204864394222,161.107609006896
5.00000000000001,943.741363669618,196.499264101988
5.01250000000002,942.478898040324,202.420711465764
5.02500000000002,797.803252318425,177.06790579411
5.03750000000002,531.925921657022,123.471631282515
5.05000000000002,185.478415423564,49.1571390767555
5.06250000000002,-188.705433856705,-34.9030000069035
5.07500000000002,-533.637540620942,-115.906381344237
5.08750000000002,-796.876213173388,-181.175761109718
5.10000000000002,-938.467300893946,-220.132245421301
5.11250000000002,-937.058901042345,-226.020185822093
5.12500000000002,-793.072894022138,-197.043386558801
5.13750000000002,-528.634952748467,-136.787748441037
5.15000000000002,-184.178807745587,-53.7973997265819
5.16250000000002,187.761535034628,39.6309755080931
5.17500000000002,530.53660585931,129.267259355164
5.18750000000002,792.040216600671,201.124889017336
5.20000000000002,932.607199170302,243.625596930898
5.21250000000002,931.050424331411,249.474874822295
5.22500000000002,787.842137761808,216.891280923239
5.23750000000002,525.01652588326,150.018258697789
