"Time [ms]","InducedVoltage(Cos_Winding) [mV]","InducedVoltage(Sin_Winding) [mV]"
0,964.96486510751,554.515126208884
0.0125,835.018869303117,485.446819583372
0.025,705.072873498724,416.378512957859
0.0375,468.424194483403,282.772624666638
0.05,161.452937054987,104.418367274224
0.0625,-168.926052156658,-91.8382037523871
0.075,-472.39363034696,-276.097196079605
0.0875,-702.918928419254,-420.002317525802
0.1,-825.730264387504,-501.078607716958
0.1125,-822.568372152879,-506.250259950792
0.125,-694.392892180776,-433.940920329803
0.1375,-461.1825233516,-294.442628624923
0.15,-158.778105893994,-108.434832295371
0.1625,166.568119876382,96.0451059252437
0.175,465.312999289721,287.866880499648
0.1875,692.151839646343,437.511341904142
0.2,812.88893573755,521.645313464581
0.2125,809.597451852985,526.735956157694
0.225,683.280604417036,451.234941094099
0.2375,453.639861741509,305.923842848726
0.25,156.005018956692,112.386298436106
0.2625,-164.104379874731,-100.197924927082
0.275,-457.93872525192,-299.454080043672
0.2875,-680.949050005404,-454.747158702453
0.3,-799.530782775143,-541.881875503692
0.3125,-796.111989603409,-546.889310496188
0.325,-671.731248989084,-468.240541751904
0.3375,-445.810006042957,-317.210265054719
0.35,-153.131143926194,-116.265892258497
0.3625,161.540871362673,104.286025051334
0.375,450.271957664114,310.850933655794
0.3875,669.307032204573,471.692800082248
0.4,785.664528268769,561.776251413391
0.4125,782.119529190039,566.693703069303
0.425,659.751766974559,484.947007093002
0.4375,437.697571384783,328.296800509151
0.45,150.153868544849,120.066326175927
0.4625,-158.862560959244,-108.303866507501
0.475,-442.319791169088,-322.053973269828
0.4875,-657.242969665905,-488.335406393222
0.5,-771.297415205705,-581.310591365816
0.5125,-767.630129075865,-586.136752539322
0.525,-647.353537135017,-501.343510859547
0.5375,-429.310429963218,-339.17385559961
0.55,-147.093834088575,-123.798408741073
0.5625,156.095004912266,112.258552249369
0.575,434.085108236101,333.048622325698
0.5875,644.762267894455,504.670237233411
0.6,756.445550126426,600.475116619793
0.6125,752.657057813923,605.206381553916
0.625,634.553136326632,517.427708467916
0.6375,420.649472412557,349.83308869842
0.65,143.939360954004,127.448940756241
0.6625,-153.224756398438,-116.140116838553
0.675,-425.578037702316,-343.831099410072
0.6875,-631.878024804645,-520.683980164103
0.7,-741.118209470937,-619.26092379589
0.7125,-737.213874013277,-623.897797652816
0.725,-621.352659515074,-533.181222718012
0.7375,-411.728928603528,-360.277351100112
0.75,-140.69046111413,-131.019502222128
0.7625,150.257191383667,119.94431828415
0.775,416.809662914204,354.40258932723
0.7875,618.592738395627,536.369401760451
0.8,725.326331420928,637.659565051205
0.812500000000001,721.305455379704,642.197121982553
0.825000000000001,607.76002926526,548.602698408318
0.837500000000001,402.546653311409,370.494649852792
0.850000000000001,137.351422602083,134.505950241027
0.862500000000001,-147.194527769635,-123.674950329749
0.875000000000001,-407.770336823649,-364.744380730829
0.887500000000001,-604.924087929953,-551.723826484255
0.900000000000001,-709.074608866012,-655.65726371189
0.912500000000001,-704.941311267862,-660.092074119319
0.925000000000001,-593.781720065374,-563.678196972988
0.937500000000001,-393.105464628344,-380.472662794567
0.950000000000001,-133.930918347032,-137.917172545763
0.962500000000001,144.044251439749,127.333234952367
0.975000000000001,398.475067418954,374.861116155909
0.987500000000001,590.868017599234,566.727116488319
1,692.372078681306,673.238639609027
1.0125,688.126586914548,677.56760206787
1.025,579.424618345021,578.395633329772
1.0375,383.419823475649,390.21606509644
1.05,130.418720333013,141.225981414625
1.0625,-140.798521914552,-130.906480708698
1.075,-388.92803066718,-384.739758961598
1.0875,-576.434671382464,-581.367360148789
1.1,-675.228525894832,-690.391682902272
1.1125,-670.875560158083,-694.611325828945
1.125,-564.700662105498,-592.741900026324
1.1375,-373.486124361635,-399.706919964806
1.15,-126.826819177381,-144.451140253294
1.1625,137.462615368799,134.39606160959
1.175,379.133067144258,394.372629161296
1.1875,561.635051924144,595.638022072003
1.2,657.658432156451,707.10457404346
1.2125,653.200930693151,711.213585193642
1.225,549.62187744397,606.714525976146
1.2375,363.321528117289,408.944241311453
1.25,123.155861175422,147.584428127964
1.2625,-134.042012232483,-137.804171923305
1.275,-369.096355722802,-403.748288175025
1.2875,-546.485936173263,-609.53385985994
1.3,-639.67589405189,-723.370461504888
1.3125,-635.117856806231,-727.3659759851
1.325,-534.198781745194,-620.303193199126
1.3375,-352.928321439928,-417.92648585572
1.35,-119.407864620421,-150.627135335322
1.3625,130.531336202362,141.11716311982
1.375,358.832359135404,412.878911115452
1.3875,530.994260626824,623.043719699385
1.4,621.294869399282,739.182997294668
1.4125,616.63775673001,743.06427234203
1.425,518.436880296256,633.50085082819
1.4375,342.317311147191,426.648026293441
1.45,115.585664340533,153.574453294441
1.4625,-126.946680569855,-144.347479407768
1.475,-348.342025124185,-421.745325319504
1.4875,-515.167533263099,-636.162834686902
1.5,-602.521374264473,-754.531964233108
1.5125,-597.767473107645,-758.294401113496
1.525,-502.3547441293,-646.30776974597
1.5375,-331.482504503494,-435.09591693298
1.55,-111.689124039456,-156.425308857225
1.5625,123.278221569275,147.485644341736
1.575,337.634482483744,430.353019753093
1.5875,499.015903537327,648.882389788821
1.6,583.36523889623,769.402343656083
1.6125,578.518087048546,773.045742426632
1.625,485.950516424306,658.700678807446
1.6375,320.44034027174,443.268624276915
1.65,107.720197453653,159.1742199547
1.6625,-119.534095832503,-150.530016418243
1.675,-326.711232878197,-438.683724172405
1.6875,-482.544974323821,-661.189675846154
1.7,-563.838838825448,-783.785849952752
1.7125,-558.901734911031,-787.304442252131
1.725,-469.236630369003,-670.672204232023
1.7375,-309.195046704229,-451.162422755915
1.75,-103.679068835907,-161.817443536593
1.7625,115.707226479306,153.478466428616
1.775,315.577884141767,446.733812583918
1.7875,465.772264115671,673.077016435672
1.8,543.955106745242,797.667218252408
1.8125,538.932297730787,801.061959009138
1.825,452.227892252624,682.218292519075
1.8375,297.756149389337,458.76547805943
1.85,99.583406085167,164.369229047098
1.8625,-111.815675363529,-156.334067498228
1.875,-304.246666909011,-454.499879173615
1.8875,-448.704338899898,-684.534423587277
1.9,-523.7330648996,-811.046589332872
1.9125,-518.626207479859,-814.310744911084
1.925,-434.937789586875,-693.336098926067
1.9375,-286.130820382513,-466.078833059048
1.95,-95.4237256740173,-166.813561037067
1.9625,107.849553130184,159.086850404996
1.97499999999999,292.726929178024,461.980236907017
1.98749999999999,431.357593219564,695.558581522517
1.99999999999999,503.184468208589,823.913570055147
2.01249999999999,497.997234433833,827.049365850297
2.02499999999999,417.37780517581,704.01683137609
2.03749999999999,274.328937602131,473.103399080186
2.04999999999999,91.2011087861495,169.150814297576
2.06249999999999,-103.816933885178,-161.734303139565
2.07499999999999,-281.027994080776,-469.173926743613
2.08749999999999,-413.739509992334,-706.148485977453
2.09999999999999,-482.32064860274,-836.263695730081
2.11249999999999,-477.055637288839,-839.267335289497
2.12499999999999,-399.55324473083,-714.255068807651
2.13749999999999,-262.354255470427,-479.833861880418
2.14999999999999,-86.9207185005373,-171.381908249903
2.16249999999999,99.719541658085,164.287596933088
2.17499999999999,269.146287101425,476.063829843729
2.18749999999999,395.865736391664,716.298563361992
2.19999999999999,461.152291402393,848.088185075618
2.21249999999999,455.814282780799,850.960855213205
2.22499999999999,381.473718648206,724.032539062034
2.23749999999999,250.213777747525,486.25966559975
2.24999999999999,82.5859555425838,173.509893796017
2.26249999999999,-95.5609434363333,-166.738505221784
2.27499999999999,-257.096142137486,-482.658235994433
2.28749999999999,-377.738443045548,-725.991924191172
2.29999999999999,-439.692206613974,-859.374289276645
2.31249999999999,-434.282923577774,-862.111053711693
2.32499999999999,-363.156024507586,-733.364504107953
2.33749999999999,-237.910079450807,-492.362577595753
2.34999999999999,-78.2011266182123,-175.524281022745
2.36249999999999,91.3394241737364,169.080808926937
2.37499999999999,244.884785563708,488.948210515266
2.38749999999999,359.37234136216,735.220063192108
2.39999999999999,417.953603567965,870.113334817361
2.41249999999999,412.477502170787,872.710309713732
2.42499999999999,344.610940908426,742.225390281142
2.43749999999999,225.458195180452,498.156334474996
2.44999999999999,73.7639832529357,177.423995009549
2.46249999999999,-87.0589969822958,-171.309527089199
2.47499999999999,-232.517673899704,-494.925206258834
2.48749999999999,-340.78004875246,-743.983680478341
2.49999999999999,-395.953902338029,-880.297616690111
2.51249999999999,-390.414621433233,-882.756744212407
2.52499999999999,-325.850465915193,-750.614480182782
2.53749999999999,-212.870787089782,-503.648031980342
2.54999999999999,-69.2800891036397,-179.194093699574
2.56249999999999,82.7239362659118,173.425365364003
2.57499999999999,220.007059683769,500.584270485086
2.58749999999999,321.976862057489,752.277488543153
2.59999999999999,373.708105997321,889.926226719424
2.61249999999999,368.110629734302,892.246952767852
2.62499999999999,306.887900575119,758.52927196642
2.63749999999999,200.150315123165,508.818686738621
2.64999999999999,64.7565849661411,180.88317035027
2.66249999999999,-78.3417690028546,-175.456556731609
2.67499999999999,-207.35805974176,-505.927203773403
2.68749999999999,-302.97395006089,-760.096402299107
2.69999999999999,-351.23165200396,-898.997920078635
2.71249999999999,-345.577241710603,-901.178690624952
2.72499999999999,-287.731778216941,-765.969823154557
2.73749999999999,-187.304824941617,-513.666285917434
2.74999999999999,-60.1931048496951,-182.450145859789
2.76249999999999,73.9111320188944,177.366282033703
2.77499999999999,194.582475677957,510.958256375309
2.78749999999999,283.780312536877,767.435807088308
2.79999999999999,328.53302989449,907.504601117716
2.81249999999999,322.82581830973,909.541981922318
2.82499999999999,268.395929669201,772.931525705434
2.83749999999999,174.337631702451,518.187522144513
2.84999999999999,55.5904309928589,183.898931073112
2.86249999999999,-69.4316310964841,-179.152740506003
2.87499999999999,-181.684018578222,-515.681696836499
2.88749999999999,-264.407341208598,-774.288784922358
2.89999999999999,-305.626820146453,-915.436739656468
2.91249999999999,-299.869214878841,-917.329628062856
2.92499999999999,-248.889633831475,-779.399476286963
2.93749999999999,-161.261612416407,-522.382828748767
2.94999999999999,-50.9513515512531,-185.225816709056
2.96249999999999,64.9082660974973,180.831454101275
2.97499999999999,168.670102612293,520.054418807316
2.98749999999999,244.867378483737,780.664987614184
2.99999999999999,282.526065840153,922.786890361307
3.01249999999999,276.723380806303,924.533842233355
3.02499999999999,229.225998886602,785.368773423441
3.03749999999999,148.082912069227,526.2473094999
3.04999999999999,46.278595472811,186.434393548025
3.06249999999999,-60.3407109578059,-182.397256056422
3.07499999999999,-155.546601223266,-524.101655894174
3.08749999999999,-225.174541560352,-786.535658102124
3.09999999999999,-259.249033794931,-929.549749744933
3.11249999999999,-253.4042157491,-931.149578065967
3.12499999999999,-209.4193030423,-790.840841298533
3.13749999999999,-134.814303239442,-529.773517469956
3.14999999999999,-41.5811955661845,-187.536436682295
3.16249999999999,55.7394126925483,183.852444815221
3.17499999999999,142.327609611375,527.81768350246
3.18749999999999,205.340440682954,791.903613375371
3.19999999999999,235.811554910779,935.726632916889
3.21249999999999,229.929190072021,937.176338900133
3.22499999999999,189.483111841382,795.817423978779
3.23749999999999,121.46176156012,532.966670486442
3.24999999999999,36.8581720500903,188.512585828022
3.26249999999999,-51.1015466590814,-185.183340329835
3.27499999999999,-129.021398694601,-531.202899215295
3.28749999999999,-185.380399202356,-796.77367216852
3.29999999999999,-212.22889121113,-941.313108585876
3.31249999999999,-206.311555274143,-942.616120848683
3.32499999999999,-169.431211332221,-800.292908056392
3.33749999999999,-108.034210009428,-535.830867805878
3.34999999999999,-32.1106181126481,-189.369225473937
3.36249999999999,46.4347988832824,186.397335432741
3.37499999999999,115.636922604312,534.256426008261
3.38749999999999,165.30306542786,801.145591152219
3.39999999999999,188.5128080567,946.309770697527
3.41249999999999,182.564170650354,947.464844658448
3.42499999999999,149.269708881729,804.26437756952
3.43749999999999,94.5372357540426,538.356213708941
3.44999999999999,27.3420594484111,190.109908859609
3.46249999999999,-41.7365918400024,-187.500294887679
3.47499999999999,-102.177367587539,-536.965673193604
3.48749999999999,-145.122671955153,-805.01859050713
3.49999999999999,-164.676543541082,-950.710787325072
3.51249999999999,-158.700236538261,-951.717762829139
3.52499999999999,-129.014166314921,-807.727175830569
3.53749999999999,-80.980046423832,-540.538326257933
3.54999999999999,-22.554742723249,-190.733343606771
3.56249999999999,37.0126599391025,188.483860314207
3.57499999999999,88.6523346623166,539.345502081745
3.58749999999999,124.848848382048,808.377965312558
3.59999999999999,140.735349207037,954.509281933332
3.61249999999999,134.735187684003,955.36472762566
3.62499999999999,108.674735119451,810.680621006968
3.63749999999998,67.371125019277,542.378928250117
3.64999999999998,17.7564109273832,191.226294227101
3.66249999999998,-32.265223802365,-189.34551719067
3.67499999999998,-75.0705443436346,-541.382206768918
3.68749999999998,-104.496578391082,-811.222403398564
3.69999999999998,-116.705112347176,-957.700444877351
3.71249999999998,-110.685632885854,-958.403261241301
3.72499999999998,-88.2711221574703,-813.117962341797
3.73749999999998,-53.7197438265901,-543.872397181537
3.74999999999998,-12.9443678710912,-191.601280087222
3.76249999999998,27.4956573313539,190.087934068621
3.77499999999998,61.4430589853596,543.07003450733
3.78749999999998,84.0783533147968,813.554255653635
3.79999999999998,92.6037972437361,960.282677747582
3.81249999999998,86.5690015691589,960.835305767503
3.82499999999998,67.8123035858842,815.041416376292
3.83749999999998,40.0382479631668,545.026064634177
3.84999999999998,8.12715497564827,191.856555795935
3.86249999999998,-22.709640547227,-190.710902651617
3.87499999999998,-47.7793065412681,-544.413443426897
3.88749999999998,-63.6107460533886,-815.372192156475
3.89999999999998,-68.4470150300547,-962.262805469793
3.91249999999998,-62.4012754941364,-962.663935468702
3.92499999999998,-47.3142706289321,-816.450923202203
3.93749999999998,-26.3320186903275,-545.839811474605
3.94999999999998,-3.30266150905062,-191.992432239244
3.96249999999999,17.9110466697088,191.207236363596
3.97499999999999,34.0843470592251,545.421015515776
3.98749999999999,43.105565665293,816.677549418701
3.99999999999999,44.2492670053325,963.641302218039
4.01249999999999,38.1947588804003,963.891199632694
4.02499999999999,26.7843129956369,817.349029533424
4.03749999999999,12.6096720819554,546.30997549985
4.04999999999999,-1.52086713560944,192.012146530762
4.06249999999999,-13.1031979194937,-191.591447644218
4.07499999999999,-20.3710514530196,-546.084264282487
4.08749999999999,-22.5715962865547,-817.472981406415
4.09999999999999,-20.022031183714,-964.413658997683
4.11249999999999,-13.9626684957515,-964.510014955596
4.12499999999999,-6.23748302563578,-817.740561089085
4.13749999999999,1.12299258179424,-546.432036095639
4.14999999999999,6.34651499160662,-191.907798123172
4.16249999999999,8.28505104514564,191.854181534455
4.17499999999999,6.64222458674862,546.404778947316
4.18749999999999,2.02236141896481,817.754689466282
4.19999999999999,-4.21899308264105,964.576761449591
4.21249999999999,-10.2800212281153,964.522784430931
4.22499999999999,-14.3137129480646,817.606046003631
4.23749999999999,-14.8544079440796,546.21098034145
4.24999999999999,-11.1667569668905,191.677120798917
4.26249999999999,-3.46271764158624,-191.993425143226
4.27499999999999,7.08946759806367,-546.382387193011
4.28749999999999,18.529836372202,-817.51206320587
4.29999999999999,28.4583127953244,-964.129057167294
4.3125,34.5153416659348,-963.92115911629
4.325,34.8548312184504,-816.952951652683
4.3375,28.5766461515063,-545.642451112879
4.35,15.9816669841027,-191.32351785903
4.3625,-1.36566013103659,192.011549566118
4.375,-20.8199844633118,546.005496567763
4.3875,-39.0663199141245,816.75572775416
4.4,-52.6765215485721,963.067306988082
4.4125,-58.7260935971157,962.706921228721
4.425,-55.3728974236911,815.784564579486
4.4375,-42.2762686444915,544.722598995105
4.45,-20.7834190264478,190.862939276097
4.4625,6.19039344940705,-191.912048729077
4.475,34.5327893633144,-545.284763179757
4.4875,59.5769082804341,-815.481612263085
4.5,76.8585876942547,-961.398601038064
4.5125,82.8961542778568,-960.886566699288
4.525,75.8530331261155,-814.102900606605
4.5375,55.9497288706516,-543.4700338583
4.55,25.5701810633324,-190.268751698318
4.5625,-11.0105736726888,191.684559862438
4.575,-48.2229113070023,544.223673350414
4.5875,-80.0461176941676,813.692585194874
4.6,-100.98949475926,959.12743558567
4.6125,-107.012873929202,958.465409392284
4.625,-96.2824259603186,811.909800231468
4.6375,-69.5882843097477,541.877477915662
4.65,-30.3426586626017,189.559748366969
4.66250000000001,15.8214474640009,-191.339042907096
4.67500000000001,61.8798327044724,-542.822844293663
4.68750000000001,100.467029007424,-811.395902671458
4.70000000000001,125.057933836684,-956.25464716034
4.71250000000001,131.063050836871,-955.442497130966
4.72500000000001,116.654798192652,-809.208517564389
4.73750000000001,83.1831293497918,-539.939512936175
4.75000000000001,35.0991458886633,-188.733935866338
4.76250000000001,-20.6258581018544,190.881339413266
4.77500000000001,-75.4998756746592,541.070408761783
4.78750000000001,-120.825349824275,808.592295443732
4.80000000000001,-149.04904081826,952.780421004596
4.81250000000001,-155.032840519024,951.817792093067
4.82500000000001,-136.953889103359,805.996610741973
4.83750000000001,-96.7258665650344,537.659450899496
4.85000000000001,-39.8326014030458,187.786747839575
4.86250000000001,25.4153563171879,-190.292575058984
4.87500000000001,89.0757794482399,-538.991941838312
4.88750000000001,141.107744304297,-805.273649761495
4.90000000000001,172.946317727618,-948.702436032366
4.91250000000001,178.90434546007,-947.588987663227
4.92500000000001,157.16780664888,-802.267623040414
4.93750000000001,110.207095585431,-535.044824280063
4.95000000000001,44.5354331060709,-186.714840891991
4.96250000000001,-30.1885935274436,189.58613622683
4.97500000000001,-102.593870646235,536.565652982899
4.98750000000001,-161.299567767115,801.44368046178
5.00000000000001,-196.732649065532,944.020807322744
5.01250000000002,-202.660499069646,942.756289956984
5.02500000000002,-177.276898696531,798.036514947338
5.03750000000002,-123.616786672537,532.080002874657
5.05000000000002,-49.2143869781883,185.530524472196
5.06250000000002,34.9449125245646,-188.762513283125
5.07500000000002,116.04330768986,-533.794234256949
5.08750000000002,181.389241793708,-797.108051096804
5.10000000000002,220.391109671266,-938.738534721216
5.11250000000002,226.285242376541,-937.328103294539
5.12500000000002,197.274016793947,-793.299232194138
5.13750000000002,136.947170869577,-528.784402346415
5.15000000000002,53.8596326874134,-184.229331255429
5.16250000000002,-39.6776563305151,187.816971771622
5.17500000000002,-129.41872813626,530.688651242569
5.18750000000002,-201.360017244593,792.265130480578
5.20000000000002,-243.909661280357,932.870316703756
5.21250000000002,-249.765278882851,931.311520333406
5.22500000000002,-217.143280243652,788.061589209554
5.23750000000002,-150.192361499903,525.161362491389
