"Time [ms]","InducedVoltage(Cos_Winding) [mV]","InducedVoltage(Sin_Winding) [mV]"
0,-554.64386475335,964.743508083566
0.0125,-485.559536079983,834.827333755673
0.025,-416.475207406616,704.911159427779
0.0375,-282.83830932691,468.316767618173
0.05,-104.442634360031,161.415933500282
0.0625,91.8595157686689,-168.887282904204
0.075,276.16130796905,-472.285276439034
0.0875,420.099863941659,-702.757722835917
0.1,501.195000087355,-825.540913092168
0.1125,506.367869167465,-822.37976302957
0.125,434.041745477078,-694.233685818142
0.1375,294.511051449773,-461.076808184945
0.15,108.460044438279,-158.741729521388
0.1625,-96.067412973087,166.529900157515
0.175,-287.933753332702,465.20631690178
0.1875,-437.613004641608,691.993166200546
0.2,-521.766540180521,812.702604264769
0.2125,-526.858379821921,809.41189205221
0.225,-451.33982776075,683.124016860015
0.2375,-305.994963866737,453.535916871641
0.25,-112.412438876448,155.969291485468
0.2625,100.221201382912,-164.066748009516
0.275,299.523681669485,-457.833770664097
0.2875,454.852870641979,-680.793010541238
0.3,542.007857274084,-799.347588992594
0.3125,547.016467162282,-795.929601569458
0.325,468.349423799194,-671.577373601576
0.3375,317.284036214775,-445.707902380993
0.35,116.292943904232,-153.096090139205
0.3625,-104.310258427786,161.503847614958
0.375,-310.92321416997,450.168802641127
0.3875,-471.802494029013,669.153723259514
0.4,-561.906905096252,785.484595113716
0.4125,-566.825512173239,781.940428728489
0.425,-485.059813215683,659.600708278158
0.4375,-328.373179672895,437.597371012807
0.45,-120.094273745719,150.119511244073
0.4625,108.329049456774,-158.826158448463
0.475,322.128884544245,-442.218503976876
0.4875,488.449009461787,-657.092501139871
0.5,581.445836033563,-771.120856603407
0.5125,586.273131540739,-767.454434958856
0.525,501.460174099742,-647.205388907539
0.5375,339.252790227312,-429.212203747697
0.55,123.827229600504,-147.060205607331
0.5625,-112.284661222011,156.059257374233
0.575,-333.126116628661,433.985759367149
0.5875,-504.787680869683,644.614731628413
0.6,-600.614867436803,756.272485757069
0.6125,-605.347246203173,752.484882959642
0.625,-517.548150547555,634.408003905446
0.6375,-349.914529618584,420.553285710681
0.65,-127.478622861002,143.906470691643
0.6625,116.167139730409,-153.189681392208
0.675,343.911129073365,-425.480691060621
0.6875,520.805187901547,-631.733521451697
0.7,619.405093259262,-740.948750233736
0.7125,624.04305605118,-737.045334729324
0.725,533.305369405275,-621.210632930712
0.7375,360.361247619287,-411.634838990556
0.75,131.050021506304,-140.658338655338
0.7625,-119.972233400714,150.222817879546
0.775,-354.485103735626,416.714380122718
0.7875,-536.494300420495,618.451357859725
0.8,-637.808057758812,725.160590313423
0.812500000000001,-642.346681175825,721.140658037393
0.825000000000001,-548.730468097165,607.621203778251
0.837500000000001,-370.580946572933,402.454724467782
0.850000000000001,-134.537290870571,137.320080446668
0.862500000000001,123.703745892033,-147.16087035986
0.875000000000001,364.829328283513,-407.67717698917
0.887500000000001,551.852329755041,-604.785928022746
0.900000000000001,655.809983561482,-708.912692189281
0.912500000000001,660.245835303415,-704.780367266425
0.925000000000001,563.80950844517,-593.646175816755
0.937500000000001,380.561303828762,-393.015757112518
0.950000000000001,137.949308046156,-133.900387292644
0.962500000000001,-127.362889604828,144.011336149278
0.975000000000001,-374.948437111554,398.38409842051
0.987500000000001,-566.85914283384,590.733163192995
1,-673.395486849463,692.214090556895
1.0125,-677.72546708755,687.969595823204
1.025,-578.530398462973,579.292452444277
1.0375,-390.306990089395,383.332395501112
1.05,-141.258897088903,130.389012215811
1.0625,130.936972812643,-140.766373515628
1.075,384.829399886984,-388.839304644055
1.0875,581.502822344836,-576.303211478869
1.1,690.552558500746,-675.074567137699
1.1125,694.773192122014,-670.722625620291
1.125,592.880034083826,-564.57196154303
1.1375,399.800075954382,-373.401022958198
1.15,144.484813745472,-126.797959096775
1.1625,-134.427372211133,137.431250697362
1.175,-394.464529708449,379.046646139947
1.1875,-595.776838757715,561.507068828203
1.2,-707.269376044796,657.508604345914
1.2125,-711.379351686413,653.052152266847
1.225,-606.855943721311,549.496721711961
1.2375,-409.039567376913,363.238824615987
1.25,-147.618839140451,123.127852128783
1.2625,137.83627940087,-134.011449082438
1.275,403.842397899781,-369.012289655438
1.2875,609.675940792573,-546.361516168735
1.3,723.539084689239,-639.530296569708
1.3125,727.535537762732,-634.973331188253
1.325,620.447803251657,-534.077251318491
1.3375,418.023925733141,-352.848058971489
1.35,150.662259712908,-119.38074388035
1.3625,-141.150054786213,130.501592244635
1.375,-412.975162501207,358.750708819648
1.3875,-623.188974793259,530.873489412859
1.4,-739.355335236834,621.153595632463
1.4125,-743.237522373339,616.497578223715
1.425,-633.648563050548,518.319055089912
1.4375,-426.747507578245,342.239546785612
1.45,-153.610270177248,115.559449536492
1.4625,144.381129422136,-126.917793938942
1.475,421.843658228769,-348.262836346513
1.4875,636.311170200096,-515.050482855539
1.5,754.707906219542,-602.384517200837
1.5125,758.471226294795,-597.631730544198
1.525,646.458484750878,-502.240705862732
1.5375,435.197382932923,-331.407286502076
1.55,156.461793899277,-111.663818316387
1.5625,-147.520030535867,123.250188909604
1.575,-430.453374361883,337.557826059139
1.5875,-649.033707444246,498.902644636959
1.6,-769.581776427463,583.2328823258
1.6125,-773.226027488521,578.386869879624
1.625,-658.854302297131,485.840331254955
1.6375,-443.372007547051,320.367717709478
1.65,-159.211349053528,107.695821022777
1.6625,150.565114496633,-119.506948422615
1.675,438.786033708086,-326.637141775434
1.6875,661.343883957869,-482.435584386844
1.7,783.968655150578,-563.711065942655
1.7125,787.488073618165,-558.775124188271
1.725,670.828636659768,-469.130370431084
1.7375,451.267661528034,-309.125063437761
1.75,161.855198673108,-103.655643065436
1.7625,-153.514264924956,115.680981994089
1.775,-446.838010221581,315.506399552989
1.7875,-673.234013389658,465.666821477999
1.8,-797.853282868155,543.83199875828
1.8125,-801.248821880949,538.810376555111
1.825,-682.377439849807,452.125622852319
1.8375,-458.872502086201,297.688850552579
1.85,-164.40757768729,99.5609437839565
1.8625,156.370530348554,-111.790341373597
1.875,454.605900163278,-304.17784600046
1.8875,684.694113113624,-448.602896911823
1.9,811.235798833755,-523.614710070057
1.9125,814.500727090609,-518.509053021099
1.925,693.497854282445,-434.839579521725
1.9375,466.187576348125,-286.066253205346
1.95,166.852488253777,-95.4022386336726
1.9625,-159.123959862086,107.825148479884
1.97499999999999,-462.088016585187,292.660813950055
1.98749999999999,-695.720862723455,431.26022462478
1.99999999999999,-824.105807760979,503.070937939988
2.01249999999999,-827.242338599636,497.884917574173
2.02499999999999,-704.181101330923,417.283722374003
2.03749999999999,-473.213796175392,274.267138029963
2.04999999999999,-169.19029021029,91.1806141252058
2.06249999999999,161.772033929426,-103.793477245735
2.07499999999999,469.283408407532,-280.964623054307
2.08749999999999,706.313248079179,-413.646276488198
2.09999999999999,836.458836887832,-482.212015879719
2.11249999999999,839.463181082717,-476.948233300882
2.12499999999999,714.421745131178,-399.463341370616
2.13749999999999,479.945838918968,-262.295269976863
2.14999999999999,171.421912814335,-86.9012232891295
2.16249999999999,-164.325928050597,99.6970428352966
2.17499999999999,-476.174925235977,269.085703047279
2.18749999999999,-716.46572154048,395.776698531375
2.19999999999999,-848.286104105086,461.04862408719
2.21249999999999,-851.159448516384,455.71186709711
2.22499999999999,-724.201513610049,381.388037253688
2.23749999999999,-486.373156632941,250.157649499885
2.24999999999999,-173.550390852201,82.567477597733
2.26249999999999,166.777414066164,-95.5394228095251
2.27499999999999,482.770877666001,-257.038385445182
2.28749999999999,726.16136006396,-377.653653826791
2.29999999999999,859.574858826264,-439.593569880305
2.31249999999999,862.312267283338,-434.185554409752
2.32499999999999,733.535674990074,-363.0746498303
2.33749999999999,492.477500067923,-237.856812353524
2.34999999999999,175.565249747787,-78.183680710138
2.36249999999999,-169.120268288409,91.3188938341609
2.37499999999999,-489.062328970691,244.829890217197
2.38749999999999,-735.391666835197,359.291855479613
2.39999999999999,-870.316429005905,417.860058285248
2.41249999999999,-872.914015494153,412.385241887889
2.42499999999999,-742.39864473089,344.533913315071
2.43749999999999,-498.272623781276,225.407841598247
2.44999999999999,-177.465412679198,73.747571729059
2.46249999999999,171.349513472327,-87.039467136295
2.47499999999999,495.04073064288,-232.465675865159
2.48749999999999,744.157345661286,-340.703915166713
2.49999999999999,880.503107945049,-395.865510824179
2.51249999999999,882.962814990822,-390.327528698466
2.52499999999999,750.78970865439,-325.77783378133
2.53749999999999,503.765613204947,-212.823391060189
2.54999999999999,179.23593981962,-69.2647058750418
2.56249999999999,-173.465854833549,82.7054098578778
2.57499999999999,-500.701129207304,219.957989352378
2.58749999999999,-752.453107774045,321.905134416197
2.59999999999999,-890.133985892169,373.624926251896
2.61249999999999,-892.455258347017,368.028762578038
2.62499999999999,-758.706363474196,306.819713223852
2.63749999999999,-508.937483906671,200.105900514309
2.64999999999999,-180.925409350937,64.7422778449222
2.66249999999999,175.497516213877,-78.3242872403649
2.67499999999999,506.045321098762,-207.311955694184
2.68749999999999,760.273863450815,-302.906672113963
2.69999999999999,899.207815374059,-351.153739521407
2.71249999999999,901.389098152908,-345.500650948486
2.72499999999999,766.148667151537,-287.668081361125
2.73749999999999,513.786221221092,-187.263423422955
2.74999999999999,182.492749698997,-60.1798658728014
2.76249999999999,-177.407689051507,73.8946879908348
2.77499999999999,-511.077557148552,194.539368014919
2.78749999999999,-767.614994621487,283.71753310559
2.79999999999999,-907.716496461721,328.460432902607
2.81249999999999,-909.754355953459,322.754560248783
2.82499999999999,-773.112003898033,268.336755741332
2.83749999999999,-518.308519583556,174.299267970592
2.84999999999999,-183.941873502964,55.5782767638422
2.86249999999999,179.194568889905,-69.4162417152084
2.87499999999999,515.802104492096,-181.643928625969
2.88749999999999,774.469581939586,-264.349104653737
2.89999999999999,915.650498694846,-305.559586084668
2.91249999999999,917.543829713724,-299.803332752792
2.92499999999999,779.581472228867,-248.835026990139
2.93749999999999,522.504810450842,-161.22630694313
2.94999999999999,185.269069791705,-50.9402849770791
2.96249999999999,-180.873674930691,64.8939347007369
2.97499999999999,-520.175852696969,168.633062485328
2.98749999999999,-780.847283062207,244.813708927
2.99999999999999,-923.002372572508,282.46424590507
3.01249999999999,-924.74973457738,276.662915604081
3.02499999999999,-785.552169783887,229.175996626306
3.03749999999999,-526.370200907475,148.05068709628
3.04999999999999,-186.477934787068,46.2686155284654
3.06249999999999,182.439849839609,-60.327436148543
3.07499999999999,524.224041927703,-155.512633085965
3.08749999999999,786.719329683041,-225.125483000132
3.09999999999999,929.766819698804,-259.192662921117
3.11249999999999,931.367024734595,-253.349208549446
3.12499999999999,791.025525166804,-209.37393654394
3.13749999999999,529.897237985912,-134.785184796525
3.14999999999999,187.580232997166,-41.5723234708556
3.16249999999999,-183.895378505979,55.7272178676315
3.17499999999999,-527.940941843264,142.296736779229
3.18749999999999,-792.088545941363,205.296030972003
3.19999999999999,-935.945155687884,235.760668042467
3.21249999999999,-937.395204792236,229.879676891634
3.22499999999999,-796.003276631905,189.442416676824
3.23749999999999,-533.091138323977,121.435778219725
3.24999999999999,-188.556614722008,36.85040002089
3.26249999999999,185.22658540984,-51.0904412070102
3.27499999999999,531.326955128167,-128.993638877205
3.28749999999999,796.95974932488,-185.340665981576
3.29999999999999,941.532945715088,-212.183525989227
3.31249999999999,942.836262722573,-206.26758124087
3.32499999999999,800.479814627079,-169.395206959614
3.33749999999999,535.956010912537,-108.011370016697
3.34999999999999,189.413452795095,-32.103962432737
3.36249999999999,-186.440864194072,46.4247917684221
3.37499999999999,-534.381196894697,115.612303736251
3.38749999999999,-801.33270049854,165.26802664817
3.39999999999999,-946.530780576956,188.472998743089
3.41249999999999,-947.686124729551,182.525758070122
3.42499999999999,-804.452215154677,149.2384320043
3.43749999999999,-538.481949474605,94.5175520564547
3.44999999999999,-190.154311062381,27.3365198593311
3.46249999999999,187.544083665917,-41.7276877427554
3.47499999999999,537.091085115828,-102.155892599808
3.48749999999999,805.206604985631,-145.092362944281
3.49999999999999,950.932827770682,-164.642318892516
3.51249999999999,951.940039656252,-158.667409668208
3.52499999999999,807.915822689231,-128.987641863748
3.53749999999999,540.664576668437,-80.9635253561223
3.54999999999999,190.777886646257,-22.550329397198
3.56249999999999,-188.527883124075,37.0048518422507
3.57499999999999,-539.471466765632,88.6340356295042
3.58749999999999,-808.566765000462,124.823289366402
3.59999999999999,-954.732211886087,140.706729635492
3.61249999999999,-955.587858926055,134.707970866434
3.62499999999999,-810.869961483835,108.652959421491
3.63749999999998,-542.505601447445,67.3578142003719
3.64999999999998,-191.270956077625,17.7531102527346
3.66249999999998,189.389736200472,-32.2585309064628
3.67499999999998,541.508650545327,-75.0554208191135
3.68749999999998,811.411869291233,-104.475785360431
3.69999999999998,957.924123022389,-116.682117787581
3.71249999999998,958.627105429348,-110.664046131646
3.72499999999998,813.307872272964,-88.2541249323725
3.73749999999998,543.999424608227,-53.7096230483443
3.74999999999998,191.646032074544,-12.9422001486435
3.76249999999998,-190.132328967858,27.4900821307714
3.77499999999998,-543.196870080463,61.4311274165197
3.78749999999998,-813.744270548692,84.0623414689618
3.79999999999998,-960.506965912843,92.5864433776908
3.81249999999998,-961.059722468306,86.5530635881422
3.82499999999998,-815.231782058889,67.8000983117419
3.83749999999998,-545.153365006424,40.0313244787632
3.84999999999998,-191.901370031187,8.12612216610627
3.86249999999998,190.755440675037,-22.7051933807682
3.87499999999998,544.540601291355,-47.7705698151629
3.88749999999998,815.562637952559,-63.5995231251273
3.89999999999998,962.487560774945,-68.4353223009163
3.91249999999998,962.888786047114,-62.3909977240952
3.92499999999998,816.641624406446,-47.3068666815242
3.93749999999998,545.967308157662,-26.3283053868964
3.94999999999998,192.037280648145,-3.30274862994209
3.96249999999999,-191.251897984541,17.9077067149323
3.97499999999999,-545.548414011849,34.078822680556
3.98749999999999,-816.868302289862,43.0991489896109
3.99999999999999,-963.866386101989,44.2432401144588
4.01249999999999,-964.116342267817,38.1901512884909
4.02499999999999,-817.539947001852,26.7817136292601
4.03749999999999,-546.43758304597,12.6091782251318
4.04999999999999,-192.056995500121,-1.51964445118492
4.06249999999999,191.636197820809,-13.1009905106815
4.07499999999999,546.21181813227,-20.3687382994323
4.08749999999999,817.663926943876,-22.5699890136222
4.09999999999999,964.638926051864,-20.0216808872752
4.11249999999999,964.735307110745,-13.9637347376818
4.12499999999999,817.93156947959,-6.2397024209941
4.13749999999999,546.559673132511,1.1202701352802
4.14999999999999,191.952626566846,6.34416773070073
4.16249999999999,-191.89899644936,8.28397243414233
4.17499999999999,-546.532407223945,6.6431260631592
4.18749999999999,-817.94570277618,2.02556910009735
4.19999999999999,-964.802070975596,-4.21366828586461
4.21249999999999,-964.748081020375,-10.2732751772976
4.22499999999999,-817.797025615869,-14.3066837373189
4.23749999999999,-546.338567250615,-14.8484728489807
4.24999999999999,-191.721895075301,-11.1632792320803
4.26249999999999,192.038269111571,-3.46277301877907
4.27499999999999,546.510012179976,7.08534838683557
4.28749999999999,817.703023720357,18.5218234408104
4.29999999999999,964.354265085722,28.4473122240738
4.3125,964.146319019144,34.5029237251194
4.325,817.143781955823,34.8429932938945
4.3375,545.769908025745,28.5675005117257
4.35,191.368214951973,15.977066334233
4.3625,-192.056400500633,-1.36447923238512
4.375,-546.133039831078,-20.812655330232
4.3875,-816.946513292239,-39.0534969934932
4.4,-963.29227146479,-52.6598523449627
4.4125,-962.93180269894,-58.7080082961495
4.425,-815.975130386808,-55.3562586698827
4.4375,-544.849848030112,-42.2639182030301
4.45,-190.907523189444,-20.7776869992009
4.4625,191.956876474381,6.18808372140853
4.475,545.412137472902,34.52224682344
4.4875,815.672108363048,59.5592845570589
4.5,961.623183127254,76.8362571596396
4.5125,961.111032970202,82.8724120344255
4.525,814.293079159631,75.8315982806368
4.5375,543.596991884624,55.9341704329349
4.55,190.31320130064,25.5633322213596
4.5625,-191.729336265807,-11.0071329109633
4.575,-544.350806411495,-48.209165497155
4.5875,-813.882668250834,-80.0236994714463
4.6,-959.351495519283,-100.961515182295
4.6125,-958.689317516664,-106.983483289183
4.625,-812.099472760505,-96.2562067448357
4.6375,-542.004069410054,-69.5695367445243
4.65,-189.604032462461,-30.3346903191968
4.66250000000001,191.383739800292,15.8168794153357
4.67500000000001,542.949653003508,61.8628859053283
4.68750000000001,811.585458224219,100.439832659406
4.70000000000001,956.478042248412,125.02431926761
4.71250000000001,955.665703965737,131.028029098439
4.72500000000001,809.397565069281,116.623810254456
4.73750000000001,540.065654388523,83.1611973253221
4.75000000000001,188.778030058393,35.0900685258643
4.76250000000001,-190.925931484812,-20.6201628908568
4.77500000000001,-541.196816220502,-75.4797468608627
4.78750000000001,-808.781198276946,-120.793386871938
4.80000000000001,-953.003008626384,-149.009808732919
4.81250000000001,-952.040155372312,-154.992208203126
4.82500000000001,-806.184910459862,-136.918150700769
4.83750000000001,-537.785064089611,-96.7007695446273
4.85000000000001,-187.830618561481,-39.82241395944
4.86250000000001,190.337033949889,25.4085465696452
4.87500000000001,539.117862151723,89.0524686951605
4.88750000000001,805.461779253003,141.071033105275
4.90000000000001,948.924074246745,172.901494246251
4.91250000000001,947.810366088534,178.858129068341
4.92500000000001,802.455055430283,157.127341848135
4.93750000000001,535.169819673213,110.178839076585
4.95000000000001,186.75846754889,44.5241452223304
4.96250000000001,-189.630428510816,-30.1806612185648
4.97500000000001,-536.691008621548,-102.567398824462
4.98750000000001,-801.630917025627,-161.258133373997
5.00000000000001,-944.241355700543,-196.682262005046
5.01250000000002,-942.976543275399,-202.608726489044
5.02500000000002,-798.222958487936,-177.23172630944
5.03750000000002,-532.204313875951,-123.585395889488
5.05000000000002,-185.573871837854,-49.2020063213208
5.06250000000002,188.806609449109,34.9358702834185
5.07500000000002,533.918944669191,116.013687000667
5.08750000000002,797.294278875275,181.343107944643
5.10000000000002,938.957855588838,220.335190042092
5.11250000000002,937.54709356007,226.227941546709
5.12500000000002,793.484573837539,197.224168212171
5.13750000000002,528.907947279037,136.912660315141
5.15000000000002,184.272375553719,53.8461654396488
5.16250000000002,-187.860846630728,-39.6675029156704
5.17500000000002,-530.812640216707,-129.385981557194
5.18750000000002,-792.450234555298,-201.309214276247
5.20000000000002,-933.088269933776,-243.848237026384
5.21250000000002,-931.529111095899,-249.702484818427
5.22500000000002,-788.245711422556,-217.088781392479
5.23750000000002,-525.284064320624,-150.154755683688
