"Time [ms]","InducedVoltage(Cos_Winding) [mV]","InducedVoltage(Sin_Winding) [mV]"
0,-558.6743054504,-964.20184991184
0.0125,-480.635614009012,-839.217427903313
0.025,-402.596922567624,-714.233005894787
0.0375,-264.394029588592,-479.837827294913
0.05,-87.6485445101764,-171.415996496508
0.0625,100.42120725441,164.254162088097
0.075,271.175203847355,476.039931302426
0.0875,398.916568229084,716.295359199887
0.1,464.762131888771,848.114805998047
0.1125,459.433481339994,851.013991943918
0.125,384.551238347497,724.107209256812
0.1375,252.277338305175,486.326954100842
0.15,83.3200886936423,173.557808835659
0.1625,-96.2724402425447,-166.719780941979
0.175,-259.148044266616,-482.695667689248
0.1875,-380.822078082986,-726.0797336484
0.2,-443.339584639059,-859.510782857
0.2125,-437.939101376462,-862.274883560878
0.225,-366.265063672025,-733.53240083198
0.2375,-239.993949344131,-492.501207403673
0.25,-78.9388981182589,-175.594030056763
0.2625,92.0587830310988,169.085636662022
0.275,246.957839699819,489.046228799155
0.2875,362.486404309781,735.409080637916
0.3,421.633985962635,870.361576781716
0.3125,416.164717374552,872.989671073676
0.325,347.743950551836,742.488255791115
0.3375,227.55889739042,498.362485590583
0.35,74.5061877808386,177.517223886037
0.3625,-87.7910680928106,-171.345524164854
0.375,-234.608881854897,-495.085089466113
0.3875,-343.914948347263,-744.266371080247
0.4,-399.658855294649,-880.660652658463
0.4125,-394.125085239247,-883.147411246622
0.425,-328.999480754017,-750.968903032178
0.4375,-214.978657161126,-503.908626693025
0.45,-70.0234539579912,-179.320011438861
0.4625,83.4587105727913,173.486449656468
0.475,222.109471830002,500.812688543414
0.4875,325.129125526106,752.649334725608
0.5,377.429369624318,890.396480535343
0.5125,371.835291751413,892.742856981606
0.525,310.046834361763,758.970985760073
0.5375,202.26519192036,509.135933160714
0.55,65.5033310464791,181.022476993973
0.5625,-79.0807928752665,-175.528207965445
0.575,-209.469363387718,-506.21809343301
0.5875,-306.135866137917,-760.556768815087
0.6,-354.964627120513,-899.569183733221
0.6125,-349.312888194719,-901.772604660907
0.625,-290.901885544218,-766.501642965383
0.6375,-189.423245360473,-514.037451413665
0.65,-60.9418951684775,-182.606769381291
0.6625,74.6502737301642,177.454806315763
0.675,196.699179277986,511.303354187786
0.6875,286.953420427343,767.984344601226
0.7,332.277041220229,908.175964386171
0.7125,326.572156014099,910.239931539634
0.725,271.575350378637,773.545612676337
0.7375,176.463650276241,518.623029086597
0.75,56.3387650056717,184.074924440423
0.7625,-70.1742220819444,-179.266048422284
0.775,-183.807950937299,-516.075256740912
0.7875,-267.58732808148,-774.926883310101
0.8,-309.380420960342,-916.215310338393
0.812500000000001,-303.624110232587,-918.134826777285
0.825000000000001,-252.075031076371,-780.105811682971
0.837500000000001,-163.390811823205,-522.880959158621
0.850000000000001,-51.69942987799,-185.42480769126
0.862500000000001,65.6522828535713,180.965858138429
0.875000000000001,170.79664520838,520.512626507758
0.887500000000001,248.054706677821,781.390986917868
0.900000000000001,286.285748603079,923.676934833808
0.912500000000001,280.483386830948,925.451092401195
0.925000000000001,232.413267141077,786.172963962574
0.937500000000001,150.213204581654,526.801720310318
0.950000000000001,47.0272182424032,186.668612658315
0.962500000000001,-61.0907696829844,-182.559327855149
0.975000000000001,-157.676207204416,-524.626816901725
0.987500000000001,-228.3617179587,-787.356534757937
1,-263.00838228455,-930.551710905772
1.0125,-257.161608896895,-932.177776450525
1.025,-212.602251143668,-791.739661474409
1.0375,-136.940897994936,-530.396461705259
1.05,-42.3265350024384,-187.777574471158
1.0625,56.4890654354368,184.031175650322
1.075,144.45635224917,528.408278137089
1.0875,208.52315455388,792.818102363299
1.1,239.562721079133,936.833919053959
1.1125,233.677495763086,938.311423195822
1.125,192.658720053726,796.800767158861
1.1375,123.579618913305,533.647957465871
1.15,37.5987786140571,188.774224036515
1.1625,-51.8508896286034,-185.385246467321
1.175,-131.144597012169,-531.852462017799
1.1875,-188.551684680254,-797.775664975584
1.2,-215.967442302161,-942.520999500247
1.2125,-210.046965777553,-943.850309625714
1.225,-172.594428883902,-801.360386480303
1.2375,-110.145316086345,-536.564337896404
1.25,-32.8482131735974,-189.651681084436
1.2625,47.1799939793107,186.626305833325
1.275,117.751638282559,534.952332751905
1.2875,168.464949304349,802.233650018393
1.3,192.238342577741,947.614427598951
1.3125,186.287463440043,948.795106145184
1.325,152.423823653875,805.415220012051
1.3375,96.6402302335172,539.145250622005
1.35,28.0765552521713,190.412489577372
1.3625,-42.4785120126223,-187.739365009138
1.375,-104.284617046238,-537.726719567437
1.3875,-148.274389435624,-806.186018611051
1.4,-168.39055430719,-952.115964283242
1.4125,-162.41094030823,-953.148175139151
1.425,-132.155078522369,-808.962042460915
1.4375,-83.0771334790626,-541.391889341055
1.45,-23.2881594885198,-191.05336622857
1.4625,37.7545520585949,188.744337574723
1.475,90.7533267590647,540.158996770396
1.4875,127.988837497749,809.63242889141
1.5,144.434595648642,956.019711057692
1.5125,138.430561751854,956.900528277379
1.525,111.804542947597,812.010181318422
1.5375,69.4567169052203,543.289038660091
1.55,18.4834831583309,191.573331245614
1.5625,-33.0038652549717,-189.627544262208
1.575,-77.1634708685514,-542.258422404071
1.5875,-107.621602766067,-812.570003943679
1.6,-120.386366040496,-959.317110018055
1.6125,-114.361063018164,-960.047971352729
1.625,-91.3816518963354,-814.537971004497
1.6375,-55.7941749413831,-544.84371587085
1.65,-13.6670090662199,-191.968506546539
1.6625,28.2346974251215,190.391696510916
1.675,63.5248764541197,544.009733327235
1.6875,87.1836712751363,814.990047002798
1.7,96.2606538790385,962.006689066468
1.7125,90.2196794090007,962.584268238365
1.725,70.9010956688635,816.545119824207
1.7375,42.0949593775554,546.054714008081
1.75,8.84066745117246,192.235918425878
1.7625,-23.4412896451959,-191.030951042468
1.775,-49.8445570669069,-545.412344417131
1.7875,-66.6943177569143,-816.894793008336
1.8,-72.0762375482098,-964.081933159831
1.8125,-66.0229943290598,-964.509251430237
1.825,-50.3776356463907,-818.035810076715
1.8375,-28.3735812037963,-546.916947936885
1.85,-4.01345672864378,-192.397061905621
1.8625,18.6388050969581,191.55747043156
1.875,36.1349892482577,546.469711100123
1.8875,46.1640135799313,818.27904481469
1.9,47.8498600361147,965.552846139434
1.9125,41.7890529772707,965.824899746733
1.925,29.8249691658202,819.014920084278
1.9375,14.635588715191,547.434981173606
1.95,-0.815998081362507,192.432904347667
1.9625,-13.8228430484963,-191.957351853381
1.97499999999999,-22.4049163146567,-547.185129543765
1.98749999999999,-25.6090371330263,-819.148641807222
1.99999999999999,-23.5968163333522,-966.416583284843
2.01249999999999,-17.5307374008375,-966.53749781884
2.02499999999999,-9.25692747919181,-819.480446081278
2.03749999999999,-0.888939640086984,-547.614597916187
2.04999999999999,5.64619847536094,-192.344869487552
2.06249999999999,9.00209235777246,192.232856865213
2.07499999999999,8.66300311622862,547.562893093981
2.08749999999999,5.03597612503682,819.506380508624
2.09999999999999,-0.670665558478278,966.675281972334
2.11249999999999,-6.73806867843305,966.642779833762
2.12499999999999,-11.3188906506198,819.430477381508
2.13749999999999,-12.8600785222236,547.453057695958
2.14999999999999,-10.4734705128718,192.135568692527
2.16249999999999,-4.1721556635781,-192.394409555136
2.17499999999999,5.08542291683428,-547.585878170077
2.18749999999999,15.5382398383149,-819.355484843892
2.19999999999999,24.9390012757124,-966.326112168575
2.21249999999999,31.0041391781851,-966.143526580369
2.22499999999999,31.8852130712801,-818.853509348305
2.23749999999999,26.6004439612126,-546.944347612068
2.24999999999999,15.2961374245423,-191.809763629806
2.26249999999999,-0.659427554062174,192.436783534105
2.27499999999999,-18.8317639511689,547.26866615
2.28749999999999,-36.1038376385324,818.681621056268
2.29999999999999,-49.190904552728,965.364077562652
2.31249999999999,-55.2498921382265,965.0278589918
2.32499999999999,-52.4350569041024,817.770779336281
2.33749999999999,-40.3207467112699,546.074076147337
2.34999999999999,-20.1055177092287,191.360270038206
2.36249999999999,5.49122059793368,-192.35356349168
2.37499999999999,32.5656927005924,-546.606594373017
2.38749999999999,56.6436913074228,-817.48469431963
2.39999999999999,73.4106089200217,-963.788133462352
2.41249999999999,79.4575167108703,-963.2973180785
2.42499999999999,72.9462486628235,-816.165947448256
2.43749999999999,54.0149893316715,-544.861398439183
2.44999999999999,24.9027857874016,-190.785393286246
2.46249999999999,-10.317412999717,192.142235834662
2.47499999999999,-46.2779341197946,545.595410270457
2.48749999999999,-77.1472502049275,815.771754393555
2.49999999999999,-97.5789432868617,961.600657880957
2.51249999999999,-103.611575695483,960.958877819293
2.52499999999999,-93.4080568254231,814.044341643946
2.53749999999999,-67.675221976978,543.319401474219
2.54999999999999,-29.6759178667603,190.074772308869
2.56249999999999,15.1344311749275,-191.805808381327
2.57499999999999,59.9556654023337,-544.236371842212
2.58749999999999,97.5983231474687,-813.54636925682
2.59999999999999,121.682352757858,-958.808844894986
2.61249999999999,127.696180678677,-958.017986468219
2.62499999999999,113.807549530586,-811.41101814866
2.63749999999999,81.2902328383504,-541.432542873758
2.64999999999999,34.4424453455002,-189.274337396756
2.66249999999999,-19.9499445797997,191.371673262842
2.67499999999999,-73.5947753652053,542.534936595093
2.68749999999999,-117.984717903119,810.809973002145
2.69999999999999,-145.706970720372,955.419303150213
2.71249999999999,-151.700073838032,954.478806035618
2.72499999999999,-134.137591922329,808.270055114594
2.73749999999999,-94.8515766535325,539.203899687921
2.74999999999999,-39.1824486488675,188.348173545173
2.76249999999999,24.7463390374796,-190.808971429355
2.77499999999999,87.1876381370888,-540.499838570588
2.78749999999999,138.296498670325,-807.562829016981
2.79999999999999,169.641215392956,-951.429296488116
2.81249999999999,175.608343866864,-950.338084682179
2.82499999999999,154.383238456268,-804.624654145692
2.83749999999999,108.355317839851,-536.631044349363
2.84999999999999,43.8975561445722,-187.299665426847
2.86249999999999,-29.5236469085213,190.114858151598
2.87499999999999,-100.73276964759,538.136713032308
2.88749999999999,-158.520173674077,803.804452191511
2.89999999999999,-193.467866308786,946.837426339307
2.91249999999999,-199.406272109932,945.59577257724
2.92499999999999,-174.52982563827,800.465602002056
2.93749999999999,-121.790251806056,533.721241397453
2.94999999999999,-48.5831767968811,186.127255746029
2.96249999999999,34.2848445803019,-189.305644270678
2.97499999999999,114.202717932021,-535.411801250216
2.98749999999999,178.650092780028,-799.548839447695
2.99999999999999,217.171871289998,-941.643587865566
3.01249999999999,223.076401580153,-940.252756600411
3.02499999999999,194.563241933435,-795.795406885255
3.03749999999999,135.148693715406,-530.47322725969
3.04999999999999,53.2389365902553,-184.835478905796
3.06249999999999,-39.0283137714954,188.375968885862
3.07499999999999,-127.604829813005,532.349902991022
3.08749999999999,-198.659291768081,794.778655388036
3.09999999999999,-240.734838751249,935.852343484724
3.11249999999999,-246.60220380006,934.312931987312
3.12499999999999,-214.471880836042,790.622750344755
3.13749999999999,-148.415693944818,526.887068004629
3.14999999999999,-57.8621196081789,183.439405711618
3.16249999999999,43.7451936066016,-187.333920511367
3.17499999999999,140.923655778795,-528.953212768445
3.18749999999999,218.539573550366,-789.50195634217
3.19999999999999,264.143475538322,-929.473067524635
3.21249999999999,269.968329623419,-927.784806974046
3.22499999999999,234.244451708448,-784.956166214903
3.23749999999999,161.588548374016,-522.970539613623
3.24999999999999,62.4450184317595,-181.921097153654
3.26249999999999,-48.4317267378468,186.165527248416
3.27499999999999,-154.152645106207,525.226125420042
3.28749999999999,-238.279546227037,783.731186442792
3.29999999999999,-287.38243040783,922.509771925882
3.31249999999999,-293.164025538219,920.677117733989
3.32499999999999,-253.86659569612,778.797693113386
3.33749999999999,-174.661993587807,518.731646090256
3.34999999999999,-66.9890934985384,180.287237801981
3.36249999999999,53.0847486059189,-184.881519737644
3.37499999999999,167.283249284359,-521.172773780623
3.38749999999999,257.872044586024,-777.470342865114
3.39999999999999,310.441666185008,-914.969059437505
3.41249999999999,316.176320200694,-912.992624989815
3.42499999999999,273.331368965169,-772.147926509595
3.43749999999999,187.625609893918,-514.164456053882
3.44999999999999,71.493555379056,-178.542262333913
3.46249999999999,-57.7095070248253,183.485692678575
3.47499999999999,-180.306898147914,516.783629653487
3.48749999999999,-277.303707609414,770.725778685256
3.49999999999999,-333.306742050233,906.852169933732
3.51249999999999,-338.991266922455,904.733519086323
3.52499999999999,-292.623062347267,765.010303239798
3.53749999999999,-200.46978703661,509.269642330391
3.54999999999999,-75.9553179952674,176.686146421554
3.56249999999999,62.2967087648818,-181.973696434219
3.57499999999999,193.222069527106,-512.076204805519
3.58749999999999,296.559385164992,-763.489213574896
3.59999999999999,355.961271238405,-898.160497327565
3.61249999999999,361.590724814037,-895.898455313387
3.62499999999999,311.732527810896,-757.388835212689
3.63749999999998,213.187862332072,-504.052896024538
3.64999999999998,80.3613502432205,-174.711506016903
3.66249999999998,-66.8430712211673,180.344186044901
3.67499999999998,-206.014879414282,507.042946262843
3.68749999999998,-315.625410314192,755.766922438938
3.69999999999998,-378.389104698274,888.897638863334
3.71249999999998,-383.958916702506,886.493648890428
3.72499999999998,-330.639135397756,749.288050777926
3.73749999999998,-225.769219210962,498.513924974909
3.74999999999998,-84.7205175740825,172.627923702858
3.76249999999998,71.3494679675256,-178.60024713896
3.77499999999998,218.672486400145,-501.684494210001
3.78749999999998,334.49208295394,-747.567355938232
3.79999999999998,400.573752009427,-879.071452100433
3.81249999999998,406.081541014061,-876.529783459039
3.82499999999998,349.336582528775,-740.714266835354
3.83749999999998,238.206233151081,-492.665596417364
3.84999999999998,89.0243783418321,-170.438190211932
3.86249999999998,-75.8100727292468,176.74467205081
3.87499999999998,-231.189543028281,496.009203274401
3.88749999999998,-353.144210556925,738.897843898208
3.89999999999998,-422.504909218195,868.696118719539
3.91249999999998,-427.946390559029,866.017693173855
3.92499999999998,-367.810681816529,731.675980770797
3.93749999999998,-250.494905175059,486.51039903452
3.94999999999998,-93.2741580296792,168.141049193485
3.96249999999999,80.2184348892676,-174.772491763848
3.97499999999999,243.565449354614,-490.027755904578
3.98749999999999,371.571837404294,-729.765612369129
3.99999999999999,444.170414431539,-857.779263154935
4.01249999999999,449.543678041226,-854.965444859397
4.02499999999999,386.056454652369,-722.178814083141
4.03749999999999,262.625256989061,-480.049869938889
4.04999999999999,97.4647277855398,-165.743891177428
4.06249999999999,-84.5781124922298,172.699053011942
4.07499999999999,-255.784348063539,483.738783417453
4.08749999999999,-389.769952527406,720.177634117812
4.09999999999999,-465.557704934722,846.322550504038
4.11249999999999,-470.858566592004,843.373409480123
4.12499999999999,-404.062698872526,712.234165164937
4.13749999999999,-274.589987400326,473.28218990944
4.14999999999999,-101.596041879671,163.238433460486
4.16249999999999,88.8862799409413,-170.515272990216
4.17499999999999,267.844923425578,-477.14500229244
4.18749999999999,407.72380336622,-710.136810038916
4.19999999999999,486.652288560223,-834.331113685609
4.21249999999999,491.879219096953,-831.250721467312
4.22499999999999,421.809698706637,-701.831422443134
4.23749999999999,286.382059991493,-466.217764408924
4.24999999999999,105.659030467369,-160.625827864395
4.26249999999999,-93.1356574691333,168.222205796844
4.27499999999999,-279.737086646665,470.252897118346
4.28749999999999,-425.417373680148,699.639684843437
4.29999999999999,-507.439891064462,821.810949388381
4.3125,-512.586072246806,818.599093984632
4.325,-439.28854167884,690.984199417616
4.3375,-297.992195545206,458.856694156679
4.35,-109.655960574764,157.909434627543
4.3625,97.3300068876957,-165.821087287018
4.375,291.45089296635,-463.053927687571
4.3875,442.840474498474,-688.705324446476
4.4,527.901396291694,-808.769083729764
4.4125,532.964717382758,-805.428811039024
4.425,456.489651939021,-679.70204743862
4.4375,309.407126662413,-451.202658670904
4.45,113.587185288952,-155.106977134437
4.4625,-101.462554519798,163.32000127123
4.475,-302.976177669954,455.565663061723
4.4875,-459.982221811172,677.335351803631
4.5,-548.027727919032,795.219479080197
4.5125,-553.005021424367,791.753884319236
4.525,-473.400367963893,667.994170423217
4.5375,-320.632831766079,443.273733082536
4.55,-117.438901228942,152.196156915409
4.5625,105.527155558355,-160.710322155698
4.575,314.312013563921,-447.794014691415
4.5875,476.82969150543,-665.539950561874
4.6,567.808262401784,-781.173658264973
4.6125,572.698420085031,-777.585266203511
4.625,490.01081835139,-655.868821822629
4.6375,331.658084324857,-435.067737541169
4.65,121.221000499516,-149.19328544398
4.66250000000001,-109.524492831358,158.003034178226
4.67500000000001,-325.449114554022,439.744812672104
4.68750000000001,-493.381384395518,653.32915828079
4.70000000000001,-587.233332171091,766.63810677971
4.71250000000001,-592.032246119201,762.928801722241
4.72500000000001,-506.318793109807,643.331881769949
4.73750000000001,-342.471490196917,426.58421020334
4.75000000000001,-124.930856125929,146.097214885328
4.76250000000001,113.46041684049,-155.201889701248
4.77500000000001,336.377732736821,-431.409601910768
4.78750000000001,509.624994916247,-640.710468437288
4.80000000000001,606.290241751902,-751.620149431194
4.81250000000001,610.995203185145,-747.791113441384
4.82500000000001,522.307012975725,-630.389102579486
4.83750000000001,353.069504076366,-417.830357100075
4.85000000000001,128.559323390274,-142.907170940939
4.86250000000001,-117.316614241332,152.294583975788
4.87500000000001,-347.105672972271,422.813840625827
4.88750000000001,-525.545090380457,627.683458700062
4.90000000000001,-624.96366677195,736.125861623424
4.91250000000001,-629.57092382436,732.17895041169
4.92500000000001,-537.961638886886,617.040442133528
4.93750000000001,-363.447463788535,408.816702497989
4.95000000000001,-132.098906115004,139.624989758104
4.96250000000001,121.100356127592,-149.293273860192
4.97500000000001,357.608916380365,-413.945518340138
4.98750000000001,541.130806677252,-614.258499388807
5.00000000000001,643.238854167647,-720.16379407728
5.01250000000002,647.744322849772,-716.101043494559
5.02500000000002,553.274590180364,-603.309145979743
5.03750000000002,373.586866219519,-399.536234590961
5.05000000000002,135.563095199011,-136.256447675984
5.06250000000002,-124.811722821426,146.198784359947
5.07500000000002,-367.879691284125,404.812433888338
5.08750000000002,-556.374930117513,600.446450412944
5.10000000000002,-661.102531006357,703.745203908269
5.11250000000002,-665.505672522396,699.572917581563
5.12500000000002,-568.23754306001,589.195367212006
5.13750000000002,-383.491945116408,390.00865306282
5.15000000000002,-138.938587338519,132.803919248191
5.16250000000002,128.440493091109,-143.010838921727
5.17500000000002,377.919783309943,-395.426700227165
5.18750000000002,571.261816019186,-586.254330755933
5.20000000000002,678.551656397229,-686.888988027118
5.21250000000002,682.847110458417,-682.607492804219
5.22500000000002,582.838945698557,-574.712204016245
5.23750000000002,393.159966676009,-380.239865493832
