"Time [ms]","InducedVoltage(Cos_Winding) [V]","InducedVoltage(Sin_Winding) [V]"
0,0.00179217908186022,1.11626925039141
0.0125,-0.00331469630979637,0.968759492004441
0.025,-0.00842157170145296,0.821249733617468
0.0375,-0.0109308083329339,0.548690530524125
0.05,-0.0098040551479556,0.192605856142577
0.0625,-0.00485856855421501,-0.192788298691795
0.075,0.00314816286276119,-0.548789926142496
0.0875,0.0126460890836774,-0.821196030079173
0.1,0.0215354481284174,-0.968531358511952
0.1125,0.0276082603192971,-0.968378895922915
0.125,0.0290152536960262,-0.820780518495484
0.1375,0.0246873016355672,-0.548252768685871
0.15,0.0146308710517229,-0.192296472456143
0.1625,2.43122848354269e-05,0.192850985145629
0.175,-0.0169097294054402,0.548541873646766
0.1875,-0.0332369557344867,0.820624323593512
0.2,-0.045819313875631,0.96769147431248
0.2125,-0.0518867350227806,0.967385424234413
0.225,-0.0495922710465852,0.81980031389967
0.2375,-0.0384308376607224,0.547457856284035
0.25,-0.0194498318295119,0.191869485226937
0.2625,0.00481316416879746,-0.192793297541342
0.275,0.0306624830682588,-0.547947741974089
0.2875,0.0538084344304885,-0.819536280682736
0.3,0.0700755939774562,-0.966235760583073
0.3125,0.076134333469097,-0.965776230546868
0.325,0.0701381135962105,-0.818295604636352
0.3375,0.052149331868573,-0.546314289804637
0.35,0.0242564359080285,-0.191318138348651
0.3625,-0.00964569766370318,0.192615756594462
0.375,-0.0443945767883815,0.547002990491146
0.3875,-0.0743487381439038,0.817920615410528
0.4,-0.09428920233249,0.964164901976896
0.4125,-0.100332955045612,0.963550632815292
0.425,-0.0906393967977267,0.816264095765645
0.4375,-0.0658356505506455,0.544826604926085
0.45,-0.0290463402822472,0.19063547686096
0.4625,0.0144740300814865,-0.192304351830623
0.475,0.0581017004589783,-0.545712008679435
0.4875,0.094837549187834,-0.815783409909225
0.5,0.118441063091861,-0.961477041079382
0.5125,0.124466985840001,-0.960710447014052
0.525,0.111081501311998,-0.813713013430896
0.5375,0.0794786515542082,-0.542992519769777
0.55,0.0338191091997019,-0.189847539860544
0.5625,-0.0192935169345881,0.19188322513652
0.575,-0.0717697185352496,0.544069320064354
0.5875,-0.115267433719238,0.813129612533572
0.6,-0.142515578859324,0.958181363470037
0.6125,-0.148519813128956,0.957261626699257
0.625,-0.131454931662358,0.810655239723753
0.6375,-0.0930691970702126,0.540810081694226
0.65,-0.0385679952221268,0.188938045173167
0.6625,0.0241003022970781,-0.191336270192244
0.675,0.0853904552668363,-0.542083488248468
0.6875,0.135621570986181,-0.809963184899368
0.7,0.166499608731158,-0.954282051070749
0.7125,0.172480220881083,-0.953214082446215
0.725,0.151741798056068,-0.807083048834336
0.7375,0.106603553534043,-0.538295691828461
0.75,0.0432945569476894,-0.187903914403953
0.7625,-0.0288887960789598,0.190663700218803
0.775,-0.0989589739374841,0.539765908295274
0.7875,-0.155891765495826,0.806282888399211
0.8,-0.190380594104424,0.949784241721536
0.812500000000001,-0.196333321863752,0.948565135479913
0.825000000000001,-0.171936759108413,0.803003112301491
0.837500000000001,-0.120072119915953,0.535439209887262
0.850000000000001,-0.0479938917066661,0.186750323088958
0.862500000000001,0.0336614700282407,-0.189873391815713
0.875000000000001,0.112464168277365,-0.537095919876823
0.887500000000001,0.176066627543986,-0.802103735070152
0.900000000000001,0.21414382699887,-0.944684735105104
0.912500000000001,0.220063686890267,-0.943316171456091
0.925000000000001,0.192024723393823,-0.798414518140283
0.937500000000001,0.133462603949809,-0.532236287282245
0.950000000000001,0.0526678474752654,-0.185487694484539
0.962500000000001,-0.0384150631645673,0.188971462072074
0.975000000000001,-0.125901638315964,0.534088979056813
0.987500000000001,-0.196130785471685,0.797410774050732
1,-0.237771375011536,0.938983457293757
1.0125,-0.243655590751757,0.93746448992705
1.025,-0.211991415976152,0.793315106079463
1.0375,-0.146771522974781,0.528702531255647
1.05,-0.0572993293126871,0.184093335563068
1.0625,0.0431423961069248,-0.187941246170627
1.075,0.139258851142332,-0.530745397703233
1.0875,0.216068641844897,-0.792205423193247
1.1,0.261247970231923,-0.932683396852783
1.1125,0.267091244095202,-0.93101536487367
1.125,0.231819747657361,-0.787709267857668
1.1375,0.159985751347695,-0.524827648506701
1.15,0.0618982473852542,-0.182587643405694
1.1625,-0.0478422478866793,0.186791509495181
1.175,-0.152526843388591,0.527061137339828
1.1875,-0.23586929533516,0.786496767568945
1.2,-0.284556604185561,0.925790511334996
1.2125,-0.29035635470246,0.923975820916991
1.225,-0.251502045124662,0.78160824625037
1.2375,-0.173095932427207,0.520622836156313
1.25,-0.0664571432202987,0.180968794872427
1.2625,0.0525141576437747,-0.18552841469703
1.275,0.165692637558416,-0.523036930302167
1.2875,0.255520374134638,-0.780296100134567
1.3,0.307684306502697,-0.918314254141481
1.3125,0.313435927467593,-0.916355384992075
1.325,0.271023799632668,-0.775014514764107
1.3375,0.186099474691312,-0.516092440471634
1.35,0.0709763348890871,-0.179236067541467
1.3625,-0.0571484382085045,0.184136874638787
1.375,-0.178760715609476,0.518693933382312
1.3875,-0.275008086841226,0.773603037418817
1.4,-0.330618296386361,0.910264563406988
1.4125,-0.336320470033226,0.908162485759819
1.425,-0.290375527937626,0.767929445369195
1.4375,-0.198986394086525,0.511241819447809
1.45,-0.0754492634135586,0.177390578955478
1.4625,0.0617479266721488,-0.182639913097135
1.475,0.191712479847178,-0.514020408179425
1.4875,0.294324701813615,-0.766423045820035
1.5,0.353346547555497,-0.90164096349323
1.5125,0.358993976203968,-0.899394852463106
1.525,0.309549374760611,-0.760371140362153
1.5375,0.211746610111039,-0.506057541103966
1.55,0.0798758731147147,-0.175433029777381
1.5625,-0.0663098536303272,0.181025014481767
1.575,-0.204547625316685,0.509027355944071
1.5875,-0.313457462823597,0.758760307408343
1.6,-0.375850892836714,0.892443886929819
1.6125,-0.381441689192137,0.890056522031431
1.625,-0.328524672836234,0.752324397292156
1.6375,-0.224372461757542,0.50055499432934
1.65,-0.0842501212022351,0.173360015288954
1.6625,0.0708284760367213,-0.179295418760078
1.675,0.217251117170605,-0.503708894928384
1.6875,0.332391071981342,-0.750611482094497
1.7,0.398118280269308,-0.882680134193769
1.7125,0.403645731468735,-0.880151758471699
1.725,0.347289076617753,-0.743795309834527
1.7375,0.236857974411042,-0.494738018240747
1.75,0.0885680816274953,-0.171170706668635
1.7625,-0.0753039817777759,0.177447916953899
1.775,-0.229816214868312,0.498065283141284
1.7875,-0.351112007943133,0.741989778619994
1.8,-0.420128660004542,0.872352815536563
1.8125,-0.425591644036835,0.86968831210179
1.825,-0.365832176313926,0.734796570097191
1.8375,-0.249188257641377,0.488604146873441
1.85,-0.0928360793239506,0.168890518452816
1.8625,0.0797330428220975,-0.17549748131979
1.875,0.242233948058801,-0.492107556631094
1.8875,0.369608015102175,-0.732894471156502
1.9,0.441873151852966,-0.861480039430075
1.9125,0.447264802292734,-0.85867648483747
1.925,0.384145320635424,-0.725338874830878
1.9375,0.261360630190049,-0.482162727886094
1.95,0.0970418191191937,-0.166500511566216
1.9625,-0.0841093689311468,0.173429408853136
1.97499999999999,-0.254498230973293,0.485843421833034
1.98749999999999,-0.387867925839253,0.723339688606698
1.99999999999999,-0.463337047014686,0.85006608083926
2.01249999999999,-0.468657171502585,0.847127392511827
2.02499999999999,-0.402213822889131,0.715428447823337
2.03749999999999,-0.273371518487734,0.475424325382617
2.04999999999999,-0.101185787913316,0.164000020204201
2.06249999999999,0.0884276455766973,-0.171249009369001
2.07499999999999,0.266603295139139,-0.4792791664323
2.08749999999999,0.405887308073421,-0.713333403551628
2.09999999999999,0.484510052575033,-0.838118607553792
2.11249999999999,0.489754609326705,-0.835045968974451
2.12499999999999,0.420030674218312,-0.705064499411954
2.13749999999999,0.285212562303612,-0.468389480447116
2.14999999999999,0.10526778449073,-0.161397145668852
2.16249999999999,-0.0926967701243508,0.168967857498071
2.17499999999999,-0.278537669368331,0.47240378544219
2.18749999999999,-0.423652182118298,0.702882593396265
2.19999999999999,-0.505379009299165,0.825642859148228
2.21249999999999,-0.510546851244657,0.82244252737962
2.22499999999999,-0.437575643833824,0.694244301310028
2.23749999999999,-0.296872694129564,0.461059039260222
2.24999999999999,-0.109286020716714,0.158694142785643
2.26249999999999,0.0969081218404576,-0.166582540767458
2.27499999999999,0.290298289122003,-0.465231908186957
2.28749999999999,0.441147913746924,-0.691982246811621
2.29999999999999,0.525926885833538,-0.812643315919218
2.31249999999999,0.531012651099351,-0.809312826290061
2.32499999999999,0.454852573021533,-0.682999002046861
2.33749999999999,0.308332905063745,-0.453414958789943
2.34999999999999,0.113232073435414,-0.155895971510099
2.36249999999999,-0.10105536823176,0.164086916164478
2.37499999999999,-0.30187627496508,0.457769417888099
2.38749999999999,-0.458359295590382,0.680639226066217
2.39999999999999,-0.546139264453179,0.799127199471021
2.41249999999999,-0.551137171461737,0.795667263421863
2.42499999999999,-0.471834872068292,0.671318015122077
2.43749999999999,-0.319600108698754,0.445491386554827
2.44999999999999,-0.117103499273791,0.152989872533876
2.46249999999999,0.10513413776158,-0.161479815146231
2.47499999999999,0.313259464833993,-0.450014087541185
2.48749999999999,0.475280807191819,-0.66886788648008
2.49999999999999,0.566001242382799,-0.785104749385816
2.51249999999999,0.570910940826904,-0.781520884729793
2.52499999999999,0.488516299737122,-0.659211900585801
2.53749999999999,0.330674203340289,-0.4373045347796
2.54999999999999,0.120884916039329,-0.149969090094697
2.56249999999999,-0.10914192242128,0.158764751569735
2.57499999999999,-0.324439495496782,0.441974053155585
2.58749999999999,-0.491900592655812,0.656677960431071
2.59999999999999,-0.585504350036843,0.770589645953474
2.61249999999999,-0.590323189469536,0.76688658308625
2.62499999999999,-0.504886885123575,0.646691926445156
2.63749999999999,-0.341536257093465,0.428837931754641
2.64999999999999,-0.124618021273716,0.146888931223456
2.66249999999999,0.113102860307807,-0.155983606014875
2.67499999999999,0.335413406276282,-0.433650107141457
2.68749999999999,0.508208056816705,-0.644076022122712
2.69999999999999,0.604640030272557,-0.755595638115468
2.71249999999999,0.609365885118406,-0.751773234312751
2.72499999999999,0.520943164918195,-0.633767675026217
2.73749999999999,0.35217936965156,-0.420097750299674
2.74999999999999,0.128265016853961,-0.143709058115019
2.76249999999999,-0.116980007512162,0.153089714672031
2.77499999999999,-0.34618204473738,0.425066015980525
2.78749999999999,-0.524194937365962,0.631066300180162
2.79999999999999,-0.623396447639426,0.740125687804444
2.81249999999999,-0.628024207701386,0.73618480179302
2.82499999999999,-0.536673479260789,0.620446746163966
2.83749999999999,-0.362600519707498,0.411089597176914
2.84999999999999,-0.131828943221076,0.14043303773724
2.86249999999999,0.120774310864008,-0.150085893620384
2.87499999999999,0.356745871774418,-0.416226373078808
2.88749999999999,0.539848877063458,-0.617655071599409
2.89999999999999,0.641758090944079,-0.724186845419306
2.91249999999999,0.646285425277621,-0.72012882103802
2.92499999999999,0.552060715751363,-0.606729676286049
2.93749999999999,0.372793534052943,-0.401824561758544
2.94999999999999,0.135304555243264,-0.137063320711376
2.96249999999999,-0.124497418623514,0.146994244112608
2.97499999999999,-0.367061467577747,0.40709947606087
2.98749999999999,-0.555174766247788,0.603867684326714
2.99999999999999,-0.659710578630902,0.707784976139557
3.01249999999999,-0.664135045161518,0.70361626843962
3.02499999999999,-0.567093414225931,0.592624151567279
3.03749999999999,-0.382750700528063,0.392304492350578
3.04999999999999,-0.138695081118504,0.133607570564328
3.06249999999999,0.128145742270628,-0.143810471082486
3.07499999999999,0.37714904012507,-0.397717446399562
3.08749999999999,0.570136655736493,-0.58968812305136
3.09999999999999,0.677242803696967,-0.690936443194341
3.11249999999999,0.681560665867995,-0.68665732641722
3.12499999999999,0.581766833635551,-0.578146148508448
3.13749999999999,0.392459249630316,-0.382535089005526
3.14999999999999,0.142004954173526,-0.130074961921387
3.16249999999999,-0.131713974250811,0.140539410090172
3.17499999999999,-0.38699706216696,0.388086029961367
3.18749999999999,-0.584732838773771,0.575132447192555
3.19999999999999,-0.694347828909279,0.673655639415546
3.21249999999999,-0.698553643294473,0.669267838093713
3.22499999999999,-0.596075303073826,0.563307034407202
3.23749999999999,-0.401920717089604,0.372524717392444
3.24999999999999,-0.145219133617387,0.126458752656749
3.26249999999999,0.135192695014569,-0.137173198363259
3.27499999999999,0.396602679231236,-0.378214520132295
3.28749999999999,0.598960594602111,-0.560218666409712
3.29999999999999,0.711012829062331,-0.655951958412255
3.31249999999999,0.715108706113436,-0.651459668828166
3.32499999999999,0.6100071833416,-0.548116809437629
3.33749999999999,0.411134469952602,-0.362286430714105
3.34999999999999,0.148341083086034,-0.12275945028075
3.36249999999999,-0.138583928463119,0.133722922038258
3.37499999999999,-0.405959739341157,0.368108121755977
3.38749999999999,-0.612815108878457,0.544954606421963
3.39999999999999,-0.727232666647719,0.637836709813314
3.41249999999999,-0.731216057464229,0.633243652549216
3.42499999999999,-0.623556082777665,0.532578042020449
3.43749999999999,-0.420089417340001,0.351817935014958
3.44999999999999,-0.151372492956543,0.118984349371695
3.46249999999999,0.141895715787344,-0.130191497712594
3.47499999999999,0.415053968433703,-0.357762947251129
3.48749999999999,0.626288729805541,-0.529351115635475
3.49999999999999,0.742995637384686,-0.619318419081395
3.51249999999999,0.746864512336425,-0.614627720326685
3.52499999999999,0.636710284887785,-0.51670222239536
3.53749999999999,0.428776488340437,-0.341125042997352
3.54999999999999,0.154312627110582,-0.115134776093314
3.56249999999999,-0.145116937012779,0.126578671572136
3.57499999999999,-0.42389638595514,0.34719654029834
3.58749999999999,-0.639362244778739,0.513407523764788
3.59999999999999,-0.758288345800188,0.600407026900734
3.61249999999999,-0.762037244751882,0.595619316928559
3.62499999999999,-0.649464818181531,0.500499404560147
3.63749999999998,-0.437192967340733,0.330214320937734
3.64999999999998,-0.157144682184465,0.1112099214671
3.66249999999998,0.1482436022999,-0.122882200444987
3.67499999999998,0.432469605141502,-0.336409871502884
3.68749999999998,0.652028225351047,-0.497137472889619
3.69999999999998,0.773098280572593,-0.581113419734787
3.71249999999998,0.776724278004062,-0.576232067595741
3.72499999999998,0.661803859317558,-0.483980829493367
3.73749999999998,0.44532909594085,-0.319094034726385
3.74999999999998,0.159881467396845,-0.107213920612752
3.76249999999998,-0.151277814986075,0.119107962184812
3.77499999999998,-0.440763045657016,0.325406994033988
3.78749999999998,-0.664282682851022,0.480553671139239
3.79999999999998,-0.787415158070388,0.561452225748018
3.81249999999998,-0.790919021777701,0.556482303450356
3.82499999999998,-0.673724054097934,0.467156906892359
3.83749999999998,-0.453186198410099,0.307777208851752
3.84999999999998,-0.162517344459943,0.103153903493878
3.86249999999998,0.154217111426655,-0.115259263675052
3.87499999999998,0.448774816909594,-0.314200013609739
3.88749999999998,0.676116321814438,-0.46366947370556
3.89999999999998,0.801238369532372,-0.541441572326761
3.91249999999998,0.804616113337013,-0.536386415328972
3.92499999999998,0.685218577018043,-0.450041164740983
3.93749999999998,0.460760123709966,-0.296268590698326
3.94999999999998,0.165052233910258,-0.0990271237236482
3.96249999999999,-0.157051092311735,0.111335111315404
3.97499999999999,-0.456511881973895,0.302798141897376
3.98749999999999,-0.687523969048649,0.446495499069839
3.99999999999999,-0.814560105581077,0.521094542837391
4.01249999999999,-0.817810798394634,0.515955866809162
4.02499999999999,-0.696285381569151,0.432642187312077
4.03749999999999,-0.468044297876842,0.284573428268872
4.04999999999999,-0.167486351278467,0.0948435764249996
4.06249999999999,0.159793853718517,-0.107347446916804
4.07499999999999,0.463959026530925,-0.291207930950694
4.08749999999999,0.698503774200224,-0.429041682996506
4.09999999999999,0.827370175641304,-0.500417998534548
4.11249999999999,0.830490301716928,-0.49519815094116
4.12499999999999,0.706920899781322,-0.41497492813589
4.13749999999999,0.475030883563432,-0.272694686172539
4.14999999999999,0.169814686885577,-0.090596482898396
4.16249999999999,-0.162436514769348,0.103290456851229
4.17499999999999,-0.47111636856924,0.279432484397031
4.18749999999999,-0.709045108808348,0.411317017945443
4.19999999999999,-0.83965878077162,0.479424289538902
4.21249999999999,-0.842648874560342,0.474127396232124
4.22499999999999,-0.717101957174366,0.397039624966934
4.23749999999999,-0.481719870372085,0.260645808064121
4.24999999999999,-0.172029201788337,0.0862892423952248
4.26249999999999,0.16497292100328,-0.0991666064768619
4.27499999999999,0.477978141858786,-0.267482999503632
4.28749999999999,0.719132975644861,-0.393327275859715
4.29999999999999,0.851415866388573,-0.45812519035216
4.3125,0.854270671443044,-0.452755088045163
4.325,0.726827741550574,-0.378852833948692
4.3375,0.488102342150056,-0.248430558163608
4.35,0.174134809792181,-0.081926066600326
4.3625,-0.167408097656923,0.0949786729586155
4.375,-0.484530798618939,0.255356428445039
4.3875,-0.72876702723781,0.375092606727576
4.4,-0.862629642423012,0.436536839160961
4.4125,-0.865348371837916,0.431096643282307
4.425,-0.736095386104475,0.360428587792528
4.4375,-0.494168512180281,0.236058008279589
4.45,-0.176141933107414,0.0775206028173979
4.4625,0.169739671615358,-0.0907342690442864
4.475,0.490776287460214,-0.243072094247714
4.4875,0.737939133441019,-0.35662152427597
4.5,0.873299111739311,-0.414675955087171
4.5125,0.875880269479318,-0.40917029243164
4.525,0.744898897570907,-0.341779958433175
4.5375,0.499933599973956,-0.223542155649025
4.55,0.17802473289183,-0.0730610739796365
4.5625,-0.171957405797906,0.0864288459496701
4.575,-0.496716113181457,0.230638437837478
4.5875,-0.746643490604582,0.337928195735373
4.6,-0.883420491359473,0.392558001455779
4.6125,-0.885864012970255,0.386989219942411
4.625,-0.753233754704829,0.322919603453282
4.6375,-0.505386421235708,0.21088705694636
4.65,-0.179800681609749,0.0685561574920255
4.66250000000001,0.174067938457257,-0.0820725308163868
4.67500000000001,0.502343990546509,-0.21806279989076
4.68750000000001,0.754884330281705,-0.319023652752479
4.70000000000001,0.892988612286439,-0.370193054807638
4.71250000000001,0.895293022447672,-0.36456525253323
4.72500000000001,0.761097724932469,-0.303853698598857
4.73750000000001,0.51051816644062,-0.198097235187379
4.75000000000001,0.181468316427639,-0.0640075366096783
4.76250000000001,-0.176078695671752,0.0776670466225923
4.77500000000001,-0.507649141812456,0.205343040290051
4.78750000000001,-0.762653291069857,0.299919424408306
4.80000000000001,-0.901996102745705,0.347594212040685
4.81250000000001,-0.904159399249641,0.341909630574876
4.82500000000001,-0.768482450968875,0.284596049601845
4.83750000000001,-0.51532637252062,0.185180590907907
4.85000000000001,-0.183018389535441,0.059417688199278
4.86250000000001,0.177968979074062,-0.0732086125757777
4.87500000000001,0.512647850989637,-0.192498573020592
4.88750000000001,0.769936944024757,-0.280622357130638
4.90000000000001,0.910432839256429,-0.324774416935368
4.91250000000001,0.91245213944212,-0.319036506667833
4.92500000000001,0.775376414830772,-0.265153502568341
4.93750000000001,0.519808541411604,-0.172147383766117
4.95000000000001,0.184448378882441,-0.0547931406161304
4.96250000000001,-0.179747088883274,0.0687039771073412
4.97500000000001,-0.517316887701404,0.179530468475882
4.98750000000001,-0.776731602991711,0.261147851557097
5.00000000000001,-0.91828989606033,0.30174823685724
5.01250000000002,-0.920162768981107,0.295960635961749
