"Time [ms]","InducedVoltage(Cos_Winding) [mV]","InducedVoltage(Sin_Winding) [mV]"
0,556.710288007298,960.002995378559
0.0125,478.938495407609,835.570008488429
0.025,401.166702807921,711.137021598299
0.0375,263.446527178168,477.765831597012
0.05,87.3243229261422,170.683534124805
0.0625,-100.076143677247,-163.533836421123
0.075,-270.215569798278,-473.972831013093
0.0875,-397.492313332131,-713.195862937533
0.1,-463.092022054321,-844.453866432026
0.1125,-457.772750485197,-847.349066353922
0.125,-383.151868934823,-720.996500613054
0.1375,-251.350106954274,-484.244120928737
0.15,-83.0033262715053,-172.822018622742
0.1625,95.9331365905367,165.993663647705
0.175,258.209387620974,480.619175666004
0.1875,379.4287937552,722.96543576439
0.2,441.706735220912,855.833432437361
0.2125,436.315908235801,858.594056460429
0.225,364.897293651731,730.407805446279
0.2375,239.088666934884,490.410661065984
0.25,78.6305210730515,174.856567069245
0.2625,-91.7272195403896,-168.356689177888
0.275,-246.039564246413,-486.959264446002
0.2875,-361.125699323054,-732.282635103505
0.3,-420.039907277325,-866.670502337978
0.3125,-414.579980760756,-869.294811023717
0.325,-346.410113311128,-739.353766084697
0.3375,-226.675558052417,-496.264634528804
0.35,-74.2064936855834,-176.778713589802
0.3625,87.4659813847392,170.612030368653
0.375,233.713518030234,492.991678420761
0.3875,342.588371059035,741.130368298401
0.4,398.104275828497,876.957849162837
0.4125,392.580614619924,879.44224056066
0.425,327.699524923245,747.825589589694
0.4375,214.119685082919,501.807404365179
0.45,69.7317535177815,178.580072376616
0.4625,-83.14246588429,-172.751602406256
0.475,-221.237017277166,-498.713771216799
0.4875,-323.836184432849,-749.504493617916
0.5,-375.915910989801,-886.685440698048
0.5125,-370.332080462274,-889.029925593407
0.525,-308.782441518423,-755.822265765909
0.5375,-201.429467351976,-507.030522205679
0.55,-65.2194981285834,-180.280924306798
0.5625,78.7721455397601,174.790897286362
0.575,208.619799096564,504.11431125885
0.5875,304.878543638072,757.40667048511
0.6,353.492999626102,895.851759887
0.6125,347.852226304351,898.054380467477
0.625,289.673222317933,763.348033391137
0.6375,188.611424116507,511.928847893823
0.65,60.66821347207,181.866227180595
0.6625,-74.3502663802409,-176.716705285647
0.675,-195.873517069587,-509.196206217773
0.6875,-285.732273843941,-764.829842641466
0.7,-330.849029302668,-904.45473585417
0.7125,-325.155041005265,-906.517542147238
0.725,-270.384062734232,-770.389121501533
0.7375,-175.677447186528,-516.5134951624
0.75,-56.0735741106918,-183.333234500145
0.7625,69.8815653811929,178.525173335787
0.775,183.007676657133,513.966431355521
0.7875,266.404029934756,771.770532502257
0.8,307.996853449491,912.491257184076
0.812500000000001,302.252095603902,914.410529474785
0.825000000000001,250.921994168475,776.947677207953
0.837500000000001,162.630625596866,520.771212881122
0.850000000000001,51.444048870733,184.684667903782
0.862500000000001,-65.3689102283611,-180.225207722702
0.875000000000001,-170.02220538487,-518.403568439592
0.887500000000001,-246.909833381845,-778.233205043798
0.900000000000001,-284.947815575062,-919.952107345455
0.912500000000001,-279.15709785672,-921.726434427068
0.925000000000001,-231.300246291062,-783.016456005834
0.937500000000001,-149.479493074309,-524.69294583134
0.950000000000001,-46.7804650511248,-185.927694392671
0.962500000000001,60.8168602706442,181.818783370342
0.975000000000001,156.926791172636,522.516304315924
0.987500000000001,227.256515798526,784.199959776763
1,261.717135360567,926.828484277393
1.0125,255.882660432531,928.456003026761
1.025,211.528914334114,788.585387700356
1.0375,136.233381045096,528.288850836678
1.05,42.0899448661454,187.038732901103
1.0625,-56.2235692194264,-183.28945184334
1.075,-143.734312256025,-526.300175685582
1.0875,-207.4575673313,-789.663891180978
1.1,-238.319452147098,-933.115456854682
1.1125,-232.446100778624,-934.59432362937
1.125,-191.625544191848,-793.650524061793
1.1375,-122.90042047019,-531.545192973402
1.15,-37.3716203577743,-188.036783804211
1.1625,51.5945780760469,184.643903209707
1.175,130.449062340994,529.746565980077
1.1875,187.52755147055,794.627222962652
1.2,214.772494188525,938.809133416356
1.2125,208.863885832185,940.140064191286
1.225,171.602907141077,798.217025530004
1.2375,109.493217737374,534.465521883003
1.25,32.632124102458,188.917833073546
1.2625,-46.9331559950368,-185.886161788719
1.275,-117.084571186387,-532.851507112432
1.2875,-167.48224041305,-799.092161421993
1.3,-191.092167440189,-943.910615467578
1.3125,-185.153745294911,-945.093641369248
1.325,-151.474436826805,-802.279762213749
1.3375,-96.0174047200188,-537.053267403871
1.35,-27.8696509502393,-189.680130319994
1.3625,42.242329259589,187.001848761427
1.375,103.644887520194,535.630795282115
1.3875,147.333433469047,803.05198295293
1.4,167.29458776346,948.422175423862
1.4125,161.327751106537,949.457293272747
1.425,131.248824584475,805.83595289722
1.4375,82.4820132775899,539.30513995505
1.45,23.0911331652329,190.322823368038
1.4625,-37.5274108345039,-188.006981430093
1.475,-90.1421981689797,-538.069243083534
1.4875,-127.090613961323,-806.507703633517
1.5,-143.389499334174,-952.337282468252
1.5125,-137.39857422124,-953.221642850348
1.525,-110.940852288567,-808.893691938551
1.5375,-68.8910875460758,-541.209609485388
1.55,-18.2977137171423,-190.846905916418
1.5625,32.7874259537559,188.892875735101
1.575,76.5809500224748,540.17420481635
1.5875,106.766675734894,809.456399409634
1.6,119.393176227768,955.648371351815
1.6125,113.380308517185,956.382260014387
1.625,90.5624931486634,811.434252335599
1.6375,55.2576791278668,542.772405590001
1.65,13.4917283424611,191.245308985558
1.6625,-28.0268136179066,-189.657630221584
1.675,-62.9724175824312,-541.933968581593
1.6875,-86.3739338855067,-811.889336235981
1.7,-95.3190441596992,-958.353293016777
1.7125,-89.291228008524,-958.934725500879
1.725,-70.1258950880878,-813.455024775328
1.7375,-41.5891452279974,-543.99472586769
1.75,-8.67629691351654,-191.516353990074
1.7625,23.2455622814876,190.300973106267
1.775,49.3217561652831,543.345703205091
1.7875,65.9283145387943,813.80806947734
1.8,71.1869323622753,960.446085475453
1.8125,65.1469363072288,960.877937115343
1.825,49.647560759598,814.961797833436
1.8375,27.8970146161818,544.867356994742
1.85,3.85820377697164,191.681724820847
1.8625,-18.4527477480101,-190.831109015102
1.875,-35.6411776830007,-544.413102777014
1.8875,-45.4427040245264,-815.20825175189
1.9,-47.0130860561413,-961.93635435319
1.9125,-40.9660259226479,-962.21372381609
1.925,-29.1389178049697,-815.95769282149
1.9375,-14.1883349106247,-545.396204891553
1.95,0.959455813693897,-191.723085945127
1.9625,13.6474560197856,191.234791813645
1.97499999999999,21.941273734994,545.140352297544
1.98749999999999,24.9319283086291,816.094577977135
1.99999999999999,22.8131648113636,962.820986518457
2.01249999999999,16.7606202222117,962.946980280974
2.02499999999999,8.61634002941929,816.441855070268
2.03749999999999,0.471998712093974,545.588439029339
2.04999999999999,-5.77945528260937,191.638755564527
2.06249999999999,-8.83599901582221,-191.512593491331
2.07499999999999,-8.2299551424259,-545.530573209504
2.08749999999999,-4.40467599712269,-816.471592710095
2.09999999999999,1.40112648044811,-963.10127166932
2.11249999999999,7.45483137544512,-963.074637094242
2.12499999999999,11.9136593326561,-816.411378666037
2.13749999999999,13.2458881256902,-545.440455536783
2.14999999999999,10.5958860114783,-191.434408433064
2.16249999999999,4.01750402990751,191.678989505528
2.17499999999999,-5.48831893575917,545.566037919497
2.18749999999999,-16.1238947240112,816.340354446155
2.19999999999999,-25.6155552208834,962.775498994494
2.21249999999999,-31.6669169521921,962.599678453098
2.22499999999999,-32.4344978022108,815.854784278338
2.23749999999999,-26.9545898012452,544.947093776634
2.24999999999999,-15.4086185393984,191.113149668814
2.26249999999999,0.802841277903152,-191.726716822187
2.27499999999999,19.204919886597,-545.261425777902
2.28749999999999,36.6435602751301,-815.687597465482
2.29999999999999,49.8133017173852,-961.838967244265
2.31249999999999,55.8585434204482,-961.509751911364
2.32499999999999,52.9380289483328,-814.79506540753
2.33749999999999,40.6450591411783,-544.091339015517
2.34999999999999,20.2062791168768,-190.671165963339
2.36249999999999,-5.62316691122371,191.648592544353
2.37499999999999,-32.9077641050571,544.615057217688
2.38749999999999,-57.1384394621865,814.512689217247
2.39999999999999,-73.9785402113646,960.290984450958
2.41249999999999,-80.0125882264046,959.806796768643
2.42499999999999,-73.4035492245828,813.214266760796
2.43749999999999,-54.3092223006081,542.894861960265
2.44999999999999,-24.9921858587887,190.103033013341
2.46249999999999,10.4393763899399,-191.44159646866
2.47499999999999,46.5886857098704,-543.620485534506
2.48749999999999,77.5960262144016,-812.82447867032
2.49999999999999,98.0934574159123,-958.132398957686
2.51249999999999,104.11301469821,-957.497806874142
2.52499999999999,93.8203920612514,-811.117565008257
2.53749999999999,67.9381465908305,-541.371256670603
2.54999999999999,29.7565084415213,-189.396536990513
2.56249999999999,-15.2481747471909,191.108412237717
2.57499999999999,-60.2352772041193,542.278683578149
2.58749999999999,-98.0011642410424,810.625220962806
2.59999999999999,-122.143445716995,955.370849892418
2.61249999999999,-128.143613051848,954.587956009637
2.62499999999999,-114.174708818909,808.510109913433
2.63749999999999,-81.5225913659163,539.502554256067
2.64999999999999,-34.5102238133493,188.604516565521
2.66249999999999,20.050718439603,-190.68327496145
2.67499999999999,73.8448395301563,-540.593042125158
2.68749999999999,118.341407379081,-807.915589657605
2.69999999999999,146.114171875592,-952.013231119258
2.71249999999999,152.093224269679,-951.081194882525
2.72499999999999,134.458929969849,-805.396922425133
2.73749999999999,95.0539578029436,-537.291018729162
2.74999999999999,39.2390678887934,-187.685587877664
2.76249999999999,-24.8362382489653,190.1258327182
2.77499999999999,-87.4074857143192,538.576385852284
2.78749999999999,-138.607472168761,804.695981551303
2.79999999999999,-169.99398397359,948.05652491205
2.81249999999999,-175.947528799369,946.97373115968
2.82499999999999,-154.657889364564,801.780551882758
2.83749999999999,-108.527895174335,534.737024902344
2.84999999999999,-43.9440188049367,186.644091138934
2.86249999999999,29.6044038273851,-189.436479991869
2.87499999999999,100.920724473336,-536.23359307005
2.88749999999999,158.786033817548,-800.965583943659
2.89999999999999,193.76617025486,-943.49974318681
2.91249999999999,199.691727947203,-942.266061801309
2.92499999999999,174.758611703878,-797.651829602679
2.93749999999999,121.931829182139,-531.848674522677
2.94999999999999,48.6199698293856,-185.478594404731
2.96249999999999,-34.3548242202437,188.633580146399
2.97499999999999,-114.361966598679,533.527870545622
2.98749999999999,-178.869310508586,796.742022510463
2.99999999999999,-217.416037566159,938.341688236795
3.01249999999999,-223.308022703646,936.960470437018
3.02499999999999,-194.747155025776,793.012745030518
3.03749999999999,-135.258905378397,528.623074544427
3.04999999999999,-53.2657691335427,184.195532629698
3.06249999999999,39.0868836810655,-187.712860799826
3.07499999999999,127.733732735803,-530.487407071224
3.08749999999999,198.833472433084,-792.003068949109
3.09999999999999,240.925763678459,-932.588486918225
3.11249999999999,246.780421149038,-931.058989935732
3.12499999999999,214.611222028077,-787.873621359267
3.13749999999999,148.496320843709,-525.059099523084
3.14999999999999,57.8771063440226,-182.806476565509
3.16249999999999,-43.79191586891,186.678320061014
3.17499999999999,-141.022333281661,527.111381537255
3.18749999999999,-218.669340801527,786.759554134166
3.19999999999999,-264.281480698576,926.24893274823
3.21249999999999,-270.0932524044,924.571098035234
3.22499999999999,-234.338829231853,782.240751761363
3.23749999999999,-161.640194173541,521.164245524468
3.24999999999999,-62.4492513338191,181.297564008339
3.26249999999999,48.4686155107159,-185.516986986248
3.27499999999999,154.220655923781,-523.407571088137
3.28749999999999,238.364614169767,-781.022374885196
3.29999999999999,287.4676418789,-919.326727450527
3.31249999999999,293.23610177574,-917.503845926319
3.32499999999999,253.915636985411,-776.117191000694
3.33749999999999,174.683433227971,-516.95035942682
3.34999999999999,66.9837789301518,-179.671163675294
3.36249999999999,-53.1117794670322,184.240003594216
3.37499999999999,-167.321247628055,519.377092113919
3.38749999999999,-257.911695186419,774.797753293626
3.39999999999999,-310.474228977948,911.82771210834
3.41249999999999,-316.195562186992,909.861457536584
3.42499999999999,-273.335450477326,769.503411730186
3.43749999999999,-187.617018380137,512.407087534043
3.44999999999999,-71.47761347566,177.936630697008
3.46249999999999,57.7255395714582,-182.852860063724
3.47499999999999,180.31483131761,-515.01315812753
3.48749999999999,277.298548540373,-768.089171283522
3.49999999999999,333.286725485043,-903.75339908578
3.51249999999999,338.957818200945,-901.645801232857
3.52499999999999,292.582580280681,-762.402973017354
3.53749999999999,200.430701826726,-507.538533817252
3.54999999999999,75.9297154305238,-176.08837026014
3.56249999999999,-62.3013011087875,181.350506684605
3.57499999999999,-193.200913759788,510.329083735584
3.58749999999999,-296.509923081532,760.889651461549
3.59999999999999,-355.888678182041,895.106437508468
3.61249999999999,-361.504841350235,892.856296180496
3.62499999999999,-311.647433623266,754.820214651967
3.63749999999998,-213.120087135987,502.345327717808
3.64999999999998,-80.3252170169643,174.123756035553
3.66249999999998,66.8379668181145,-179.727314442618
3.67499999999998,205.963178278526,-505.322326570316
3.68749999999998,315.53199237432,-753.206011698696
3.69999999999998,378.264442102368,-885.889942914956
3.71249999999998,383.821508942157,-883.497862411075
3.72499999999998,330.511178721455,-746.758453629013
3.73749999999998,225.671913967403,-496.834246425115
3.74999999999998,84.6737674789516,-172.049957690556
3.76249999999998,-71.3335136370011,177.993214594522
3.77499999999998,-218.592255992003,499.989013270648
3.78749999999998,-334.354786656286,745.046801338432
3.79999999999998,-400.39781327264,876.111491992011
3.81249999999998,-405.893460476809,873.581280286838
3.82499999999998,-349.164954959867,738.226470393654
3.83749999999998,-238.081042415427,491.012616271891
3.84999999999998,-88.9672054448094,169.870186977742
3.86249999999998,75.7846913065605,-176.146104457964
3.87499999999998,231.079482524702,-494.341898696031
3.88749999999998,352.963680520512,-736.41847271898
3.89999999999998,422.278809444123,-865.784079073221
3.91249999999998,427.707605038159,-863.117908053328
3.92499999999998,367.596652102069,-729.228908181825
3.93749999999998,250.340251414354,-484.886930779375
3.94999999999998,93.2073555741711,-167.583042949907
3.96249999999999,-80.1815878183151,174.185083403346
3.97499999999999,-243.427268246769,488.388137857809
3.98749999999999,-371.349222571486,727.326898187216
3.99999999999999,-443.893785990418,854.916671532169
4.01249999999999,-449.254516756069,852.115249347039
4.02499999999999,-385.799367258462,719.774506532606
4.03749999999999,-262.442911252012,478.454022334901
4.04999999999999,-97.3888078603653,165.195079605894
4.06249999999999,84.5321166381673,-172.120514556174
4.07499999999999,255.617998242483,-482.126684091164
4.08749999999999,389.504529564744,-717.781643184318
4.09999999999999,465.230959230168,-843.510016978124
4.11249999999999,470.518989498344,-840.574061484671
4.12499999999999,403.763737687643,-709.872360041436
4.13749999999999,274.37938887385,-471.714921901285
4.14999999999999,101.509309062232,-162.701642491274
4.16249999999999,-88.8297037888284,169.947314949835
4.17499999999999,-267.650317073624,475.561245444429
4.18749999999999,-407.416189705159,707.783859373532
4.19999999999999,-486.275215103444,831.570567141208
4.21249999999999,-491.490141550603,828.502731827186
4.22499999999999,-421.468380391332,699.513948176283
4.23749999999999,-286.143197264144,464.680851086075
4.24999999999999,-105.563156491274,160.098952900301
4.26249999999999,93.0701605635268,-167.662601052245
4.27499999999999,279.514284515454,-468.698960750711
4.28749999999999,425.0666464934,-697.332027769022
4.29999999999999,507.013784722918,-819.102895380224
4.3125,512.147734393998,-815.904427716332
4.325,438.906077784916,-688.71177700307
4.3375,297.725621321779,-457.350576620278
4.35,109.549650598313,-157.394143742418
4.3625,-97.2531784122259,165.272921277944
4.375,-291.199294987982,461.530815450964
4.3875,-442.449494687912,686.44251692441
4.4,-527.427116609886,806.114672391537
4.4125,-532.478548180147,802.787940824018
4.425,-456.066008300224,677.476283724865
4.4375,-309.113320107507,449.727282460417
4.45,-113.4736351337,154.601914813672
4.4625,101.376224951751,-162.782877790172
4.475,302.698683490685,-454.072103523486
4.4875,459.550569190081,-675.11895648246
4.5,547.506034737377,-792.619484959722
4.5125,552.471060344736,-789.168071313656
4.525,472.93709354773,-665.814662931392
4.5375,320.313587398096,-441.828694565992
4.55,117.315011478449,-151.702508243164
4.5625,-105.431811600357,160.183202940956
4.575,-314.007254068285,446.332113358173
4.5875,-476.358554844957,663.369414605423
4.6,-567.239132903411,778.629207083364
4.6125,-572.117780130519,775.054705493148
4.625,-489.507959351222,653.735937624797
4.6375,-331.311226960922,433.655403442768
4.65,-121.088123109986,148.710417711475
4.66250000000001,109.41986064397,-157.486387111829
4.67500000000001,325.118311781373,-438.313717275839
4.68750000000001,492.869712445156,-651.206687957832
4.70000000000001,586.617205376051,-764.149672825336
4.71250000000001,591.404764020271,-760.454239420494
4.72500000000001,505.775979143024,-641.247323990646
4.73750000000001,342.098523006235,-425.203470424594
4.75000000000001,124.78767563706,-145.627206941648
4.76250000000001,-113.346684248306,154.696427722264
4.77500000000001,-336.018852101312,430.011382920498
4.78750000000001,-509.073788252871,638.636155992876
4.80000000000001,-605.627617898386,749.188275040131
4.81250000000001,-610.320983405963,745.373609353438
4.82500000000001,-521.724668548766,628.353247671943
4.83750000000001,-352.669481139698,416.483449564397
4.85000000000001,-128.407913629997,142.447928800462
4.86250000000001,117.192180640398,-151.801587943024
4.87500000000001,346.721230907811,-421.447462776015
4.88750000000001,524.954825890708,-625.657301010227
4.90000000000001,624.254810023279,-733.751884524819
4.91250000000001,628.850408958931,-729.819799878699
4.92500000000001,537.339718315929,-615.054196358306
4.93750000000001,363.023312940122,-407.501809527431
4.95000000000001,131.939231224505,-139.177208425123
4.96250000000001,-120.967833655919,148.81017031507
4.97500000000001,-357.198120207889,412.612456000108
4.98750000000001,-540.502019218975,612.28186976893
5.00000000000001,-642.484699096624,717.848518969285
5.01250000000002,-646.978744208221,713.800681440994
5.02500000000002,-552.616050175109,601.372200554927
5.03750000000002,-373.136977053487,398.255011397229
5.05000000000002,-135.394053589643,135.821304620053
5.06250000000002,124.66931228184,-145.727878763661
5.07500000000002,367.444472275509,-403.511818038506
5.08750000000002,555.708408559483,-598.52016177632
5.10000000000002,660.303632692578,-701.489340260132
5.11250000000002,664.696434424175,-697.331616423396
5.12500000000002,567.541033182739,-587.309407684912
5.13750000000002,383.017513631816,-388.761007355558
5.15000000000002,138.760868599987,-132.380881707027
5.16250000000002,-128.290282002589,142.550591101256
5.17500000000002,-377.458690430091,394.160482468226
5.18750000000002,-570.557381018235,584.379148720003
5.20000000000002,-677.709497170508,684.692691708584
5.21250000000002,-681.993989160864,680.426312734238
5.22500000000002,-582.105770886513,572.876796545331
5.23750000000002,-392.659927075575,379.02761739539
