"Time [ms]","InducedVoltage(Cos_Winding) [mV]","InducedVoltage(Sin_Winding) [mV]"
0,-964.312641398014,-553.780689437009
0.0125,-834.453735152525,-484.807343688197
0.025,-704.594828907035,-415.833997939385
0.0375,-468.105909879181,-282.406464498768
0.05,-161.342232889676,-104.287564892589
0.0625,168.812736199079,91.7131771573894
0.075,472.073728787331,275.734506753504
0.0875,702.441647461724,419.456110057193
0.1,825.168595350703,500.431577642747
0.1125,822.007996540919,505.600743735586
0.125,693.919099363588,433.387961699317
0.1375,460.866896385791,294.07124714002
0.15,158.668595599695,108.30204847567
0.1625,-166.455233200176,-95.9182230984574
0.175,-464.995980486572,-287.498360170429
0.1875,-691.678856780628,-436.9568117826
0.2,-812.332518395361,-520.988606592844
0.2125,-809.042461159367,-526.076889885572
0.225,-682.811329712268,-450.674093048574
0.2375,-453.32761673452,-305.547059936367
0.25,-155.896816308864,-112.251667082759
0.2625,163.992632177022,100.069042714044
0.275,457.62447925847,299.080276592367
0.2875,680.480891787136,454.184541475791
0.3,798.980221633737,541.215849812654
0.3125,795.562845986019,546.221073802699
0.325,671.267226987897,467.671920123697
0.3375,445.501190862489,316.82844789526
0.35,153.024369047921,116.129582695025
0.3625,-161.430044555937,-104.155208831552
0.375,-449.961235493514,-310.471737716901
0.3875,-668.844169865684,-471.12264089311
0.4,-785.120183910435,-561.101437716115
0.4125,-781.576840130954,-566.016693233155
0.425,-659.293222779568,-484.371137328223
0.4375,-437.39280208221,-327.910086136193
0.45,-150.048591459287,-119.928403386591
0.4625,158.753157288029,108.170906143381
0.475,442.012768377383,321.669986914265
0.4875,656.785581932341,487.758117967403
0.5,770.759949761366,580.627309746251
0.5125,767.094406782655,585.451468486517
0.525,646.901172957375,500.760666831923
0.5375,429.009749237312,338.782688502063
0.55,146.989985155088,123.659147390164
0.5625,-155.986700308188,-112.124024774046
0.575,-433.781981240517,-332.660050332209
0.5875,-644.31113200707,-504.086084476598
0.6,-755.915501483424,-599.783812314485
0.6125,-752.129058718255,-604.513128264356
0.625,-634.107285913167,-516.838296823498
0.6375,-420.353308149878,-349.437558482039
0.65,-143.837494168472,-127.30808309605
0.6625,153.117917580363,116.003922338168
0.675,425.279254857988,343.438049781763
0.6875,631.433607335683,520.093216087352
0.7,740.596368045152,618.561879190511
0.7125,736.694085837543,623.197010045621
0.725,620.913984936508,532.585337343677
0.7375,411.437776769279,359.877554561282
0.75,140.590354678312,130.877385649004
0.7625,-150.151599999778,-119.80665511928
0.775,-416.515585380753,-354.005268002704
0.7875,-618.155816917297,-535.772107955323
0.8,-724.813200793062,-636.95325725504
0.812500000000001,-720.794606794556,-641.489037462762
0.825000000000001,-607.328994524368,-548.000851768229
0.837500000000001,-402.26081855915,-370.090959109921
0.850000000000001,-137.253588125728,-134.362434820427
0.862500000000001,147.090862645659,123.535608670235
0.875000000000001,407.481567875821,364.342838801715
0.887500000000001,604.494770028982,551.120760789411
0.900000000000001,708.570808286429,654.944075675706
0.912500000000001,704.439903686196,659.377173119932
0.925000000000001,593.359064884055,563.070510696941
0.937500000000001,392.825248096162,380.065313225596
0.950000000000001,133.834668298023,137.772681433957
0.962500000000001,-143.942367415239,-127.192459956094
0.975000000000001,-398.191493631716,-374.455855941491
0.987500000000001,-590.446951068915,-566.118421075041
1,-691.878073680489,-672.518942277911
1.0125,-687.635182844987,-676.846287542544
1.025,-579.010334379167,-577.782803747248
1.0375,-383.145133235417,-389.805378709162
1.05,-130.324818713414,-141.080203340322
1.0625,140.698381308067,130.76442270891
1.075,388.650198519005,384.330807940489
1.0875,576.022111080412,580.753506610587
1.1,674.744779057387,689.665936893114
1.1125,670.394406240673,693.884166982884
1.125,564.295124543894,592.124190681359
1.1375,373.217599074801,399.29282246813
1.15,126.735058027157,144.304492366099
1.1625,-137.364399864408,-134.252675694105
1.175,-378.860897632414,-393.960486938186
1.1875,-561.231529535271,-595.019263441864
1.2,-657.185361646169,-706.373247239534
1.2125,-652.730561336459,-710.480952575077
1.225,-549.225700911311,-606.092175785215
1.2375,-363.059246883181,-408.527207231745
1.25,-123.066720609421,-147.436546437883
1.2625,133.945731286119,137.659551612588
1.275,368.830678204338,403.332841644751
1.2875,546.091792569463,608.910588768709
1.3,639.2140284303,722.633900857932
1.3125,634.658869672668,726.628141329795
1.325,533.81235934529,619.676517965018
1.3375,352.672850578101,417.506576017585
1.35,119.321005939688,150.478540616927
1.3625,-130.437433707932,-140.971468735777
1.375,-358.572990090937,-412.460693183236
1.3875,-530.609906830474,-622.416168501829
1.4,-620.844755657813,-738.441446362671
1.4125,-616.190697411519,-742.321532428467
1.425,-518.06087736822,-632.870076099283
1.4375,-342.068399340294,-426.225834425451
1.45,-115.501328053752,-153.425043383155
1.4625,126.85480160237,144.200959116442
1.475,348.089418838929,421.324325236288
1.4875,514.793506623213,635.53133378266
1.5,602.083575817262,753.785869091612
1.5125,597.332855256278,757.547250093017
1.525,501.989113134994,645.673488697219
1.5375,331.2409625942,434.67121540847
1.55,111.607488365326,156.275150887973
1.5625,-123.188797564678,-147.338020073836
1.575,-337.388792145198,-429.92971820724
1.5875,-498.652569661375,-648.247299388639
1.6,-582.940260685971,-768.65206830677
1.6125,-578.096176515555,-772.29462656332
1.625,-485.59587592835,-658.063004959517
1.6375,-320.206080706637,-442.841791955885
1.65,-107.64108180308,-159.023422746884
1.6625,119.447028726841,150.381504582599
1.675,326.472819475948,438.257990459601
1.6875,482.192557264269,660.551342133486
1.7,563.426810148017,783.032009973987
1.7125,558.492909329698,786.549759224688
1.725,468.893100898781,670.031671375523
1.7375,308.968484792729,450.733659894261
1.75,103.602748659528,161.66599080789
1.7625,-115.623096023652,-153.328848804206
1.775,-315.346769493202,-446.306102994932
1.7875,-465.431035083219,-672.435943886309
1.8,-543.556343741964,-796.910186541219
1.8125,-538.536929668497,-800.304167743812
1.825,-451.895768518254,-681.575105740072
1.8375,-297.537250909509,-458.335146220781
1.85,-99.509907091043,-164.217591061859
1.8625,111.733983740153,156.183956506806
1.875,304.023283712025,454.070490615268
1.8875,448.374516308773,683.890831216096
1.9,523.348073040776,810.286733385293
1.9125,518.244792555952,813.550087159577
1.925,434.617417063985,692.690833019876
1.9375,285.919869046424,465.64714497704
1.95,95.3532710211118,166.661275660372
1.9625,-107.770585010353,-158.936044734809
1.97499999999999,-292.511645018525,-461.549265050663
1.98749999999999,-431.039624278102,-694.912853239557
1.99999999999999,-502.813495996897,-823.151178746991
2.01249999999999,-497.629847080971,-826.286157913126
2.02499999999999,-417.070069422787,-703.369637333951
2.03749999999999,-274.125995484761,-472.67062421571
2.04999999999999,-91.133525245657,-168.998200492175
2.06249999999999,103.740353664247,161.58315675715
2.07499999999999,280.820693308528,468.741321270513
2.08749999999999,413.434310378113,705.500962443323
2.09999999999999,481.964080450459,835.499180467775
2.11249999999999,476.70279405704,838.502112543732
2.12499999999999,399.258056849197,713.60613773563
2.13749999999999,262.160241942391,479.400053634917
2.14999999999999,86.8558929710207,171.229231718295
2.16249999999999,-99.6460713801872,-164.135910168127
2.17499999999999,-268.947315891151,-475.630418625636
2.18749999999999,-395.572883064937,-715.649262935514
2.19999999999999,-460.810716048726,-847.321944889168
2.21249999999999,-455.476675865305,-850.194146843519
2.22499999999999,-381.190666831085,-723.382081004594
2.23749999999999,-250.029084744119,-485.825066245371
2.24999999999999,-82.5238364580256,-173.357144276469
2.26249999999999,95.4904775669521,166.586250432195
2.27499999999999,256.905475787991,482.224011360823
2.28749999999999,377.458426642439,725.341453434773
2.29999999999999,439.365884416582,858.606724153973
2.31249999999999,433.960453207246,861.343204979929
2.32499999999999,362.886147938986,732.713085383232
2.33749999999999,237.732857000318,491.926986734724
2.34999999999999,78.1437353822923,175.37188939739
2.36249999999999,-91.2724257534501,-168.928069762621
2.37499999999999,-244.702851839216,-488.513285320041
2.38749999999999,-359.105099673801,-734.568887343855
2.39999999999999,-417.642816778262,-869.344925080875
2.41249999999999,-412.170296981473,-871.941759301383
2.42499999999999,-344.354565306127,-741.573649368815
2.43749999999999,-225.289340560016,-497.720364386598
2.44999999999999,-73.709648566679,-177.271380512022
2.46249999999999,86.9941344741906,171.156336526815
2.47499999999999,232.345074863764,494.48990051507
2.48749999999999,340.52601228768,743.332106489736
2.49999999999999,395.658630251384,879.52881107475
2.51249999999999,390.123190306083,881.987905367418
2.52499999999999,325.607141982057,749.962572811104
2.53749999999999,212.712333432416,503.212439100397
2.54999999999999,69.2266830298763,179.040584305729
2.56249999999999,-82.660504429676,-173.271765792063
2.57499999999999,-219.843687148737,-500.148615180455
2.58749999999999,-321.736418644019,-751.625706990382
2.59999999999999,-373.428738990375,-889.157414659483
2.61249999999999,-367.835367274051,-891.478109732281
2.62499999999999,-306.65806577532,-757.877410958722
2.63749999999999,-200.000901117649,-508.383167408098
2.64999999999999,-64.7080446118115,-180.730005840343
2.66249999999999,78.2840880496574,175.30382043786
2.67499999999999,207.202224909771,505.490750168272
2.68749999999999,302.747563214893,759.444765692862
2.69999999999999,350.968503014945,898.229358700694
2.71249999999999,345.318424867285,900.410215745629
2.72499999999999,287.516329722508,765.31843200635
2.73749999999999,187.163989674771,513.230905461628
2.74999999999999,60.148544545938,182.297658041481
2.76249999999999,-73.8568438958588,-177.213736216454
2.77499999999999,-194.436280604205,-510.522358718193
2.78749999999999,-283.567508286946,-766.784320420251
2.79999999999999,-328.28665643365,-906.736796958976
2.81249999999999,-322.583603347668,-908.774204878218
2.82499999999999,-268.194627793465,-772.280966959141
2.83749999999999,-174.206396068507,-517.752927780612
2.84999999999999,-55.5487604034409,-183.746496217288
2.86249999999999,69.3789142128086,178.99948218947
2.87499999999999,181.5491149827,515.247428422102
2.88749999999999,264.207883437031,773.637758059137
2.89999999999999,305.397475336705,914.669928241865
2.91249999999999,299.643760959434,916.563131436178
2.92499999999999,248.702720885602,778.750017220833
2.93749999999999,161.140301745347,521.949218775648
2.94999999999999,50.9128100070016,185.073881112469
2.96249999999999,-64.859077418364,-180.678442278985
2.97499999999999,-168.543546589999,-519.620744125396
2.98749999999999,-244.683864764493,-780.01615387575
2.99999999999999,-282.313105181715,-922.020909342934
3.01249999999999,-276.515013888096,-923.769061629473
3.02499999999999,-229.053370525103,-784.720826479997
3.03749999999999,-147.971455314793,-525.81473890444
3.04999999999999,-46.2442026521499,-186.283650017344
3.06249999999999,60.2958308011984,182.245247332563
3.07499999999999,155.429413097808,523.668691124077
3.08749999999999,225.005443127667,785.888468210662
3.09999999999999,259.053355657277,928.785871457017
3.11249999999999,253.213049683571,930.386871229501
3.12499999999999,209.261068237252,790.194832560149
3.13749999999999,134.712938004441,529.342458285192
3.14999999999999,41.5497278976366,187.38533847491
3.16249999999999,-55.6976501076477,-183.700219732102
3.17499999999999,-142.220131134477,-527.385735965158
3.18749999999999,-205.185329277021,-791.257964739999
3.19999999999999,-235.633673607263,-934.965581203935
3.21249999999999,-229.755643359508,-936.416047247274
3.22499999999999,-189.339664502425,-795.173472030019
3.23749999999999,-121.36985709802,-532.536909516012
3.24999999999999,-36.8305136303123,-188.362347832561
3.26249999999999,51.0629947303052,185.031503620402
3.27499999999999,128.923955187296,530.772332672102
3.28749999999999,185.24012739837,796.130080832239
3.29999999999999,212.068601521501,940.554860606405
3.31249999999999,206.155185235892,941.857881753889
3.32499999999999,169.303260977161,799.651693459315
3.33749999999999,107.95244023318,535.402894694522
3.34999999999999,32.0863135546705,189.219701412447
3.36249999999999,-46.3995599401435,-186.245950524896
3.37499999999999,-115.548899344069,-533.826901294939
3.38749999999999,-165.178392348949,-800.504775070293
3.39999999999999,-188.370348613739,-945.554545536058
3.41249999999999,-182.425855170116,-946.709896040811
3.42499999999999,-149.156572557206,-803.625183764515
3.43749999999999,-94.4658572854527,-537.930510615704
3.44999999999999,-27.3214618826469,-189.961207009347
3.46249999999999,41.7044725297778,187.348995407978
3.47499999999999,102.100300736503,536.538604317218
3.48749999999999,145.012989265767,804.380321682873
3.49999999999999,164.551984553197,949.958877139068
3.51249999999999,158.580283451767,950.966716912793
3.52499999999999,128.915942667563,807.090116759071
3.53749999999999,80.9195661976248,540.115253562076
3.54999999999999,22.5374440210482,190.585542343883
3.56249999999999,-36.984756789949,-188.333545619913
3.57499999999999,-88.5851212253715,-538.920176844659
3.58749999999999,-124.754426256322,-807.742795952168
3.59999999999999,-140.628932256788,-953.76111227772
3.61249999999999,-134.633440363072,-954.617606472902
3.62499999999999,-108.592731921013,-810.048092657133
3.63749999999998,-67.3196280656394,-541.956420910264
3.64999999999998,-17.7431685650693,-191.079878470895
3.66249999999998,32.2406970018408,189.195947069541
3.67499999999998,75.0137765562496,540.959022775698
3.68749999999998,104.417560334283,810.590615628668
3.69999999999998,116.616935156333,956.95641416262
3.71249999999998,110.602178029065,957.66047396953
3.72499999999998,88.2045168567953,812.489369269407
3.73749999999998,53.6789985452773,543.452716844783
3.74999999999998,12.9344882748731,191.455027217022
3.76249999999998,-27.4748513389373,-189.938814546834
3.77499999999998,-61.3965198520179,-542.649431588116
3.78749999999998,-84.0147324097121,-812.926050051356
3.79999999999998,-92.5340782393021,-959.543292239932
3.81249999999998,-86.5038134583315,-960.097119992092
3.82499999999998,-67.7613775873793,-814.416708203474
3.83749999999998,-40.0082867690749,-544.609797884218
3.84999999999998,-8.12092126649142,-191.710472945998
3.86249999999998,22.6922881664786,190.562403104335
3.87499999999998,47.7434523505851,543.995277278895
3.88749999999998,63.5629937284646,814.748219890052
3.89999999999998,68.3956649135189,961.528199882199
3.91249999999998,62.3546085954452,961.930590026214
3.92499999999998,47.279014116926,815.830259019932
3.93749999999998,26.3126797113677,545.426170907227
3.94999999999998,3.30050272941733,191.848378071553
3.96249999999999,-17.8978182368636,-191.060516208288
3.97499999999999,-34.0589833657637,-545.004999734191
3.98749999999999,-43.0734151991669,-816.058094048354
3.99999999999999,-44.2165884281975,-962.911789164328
4.01249999999999,-38.1667416150692,-963.163044370395
4.02499999999999,-26.765115230673,-816.732902537185
4.03749999999999,-12.6008227406014,-545.899184096046
4.04999999999999,1.51953615380586,-191.86953669373
4.06249999999999,13.093329487689,191.445528197775
4.07499999999999,20.3561942916209,545.671864622671
4.08749999999999,22.5555262148246,816.857563380561
4.09999999999999,20.0080934579581,963.689712629345
4.11249999999999,13.9535531415765,963.787403740881
4.12499999999999,6.23405782469486,817.129169610468
4.13749999999999,-1.12119962189397,546.024764462541
4.14999999999999,-6.34112404701724,191.766075777979
4.16249999999999,-8.27898671965252,-191.708869196255
4.17499999999999,-6.63787761926161,-545.99619856896
4.18749999999999,-2.0223214357198,-817.143886695983
4.19999999999999,4.21389845713387,-963.858460264984
4.21249999999999,10.2702924003619,-963.805993506697
4.22499999999999,14.3010864684829,-816.999808208286
4.23749999999999,14.8418174758,-545.807188870477
4.24999999999999,11.1576189215079,-191.536584771178
4.26249999999999,3.46023647850831,191.849448060153
4.27499999999999,-7.08296756002195,545.976500724588
4.28749999999999,-18.5138774302186,816.907218577416
4.29999999999999,-28.4342067908522,963.416409129426
4.3125,-34.4866474717821,963.210569384877
4.325,-34.8261580864281,816.352012664242
4.3375,-28.5533664130167,545.242465265639
4.35,-15.9686626296774,191.184578116046
4.3625,1.36437118105208,-191.869154830096
4.375,20.8025648071547,-545.60301075438
4.3875,39.0343417739731,-816.156043362381
4.4,52.633556876747,-962.361417617415
4.4125,58.6785312477158,-962.00303033859
4.425,55.3280603678312,-815.189134958166
4.4375,42.2421595758619,-544.326584442473
4.45,20.7667791068697,-190.725083995547
4.4625,-6.18521160437976,191.770589780643
4.475,-34.5048845806165,544.886375207821
4.4875,-59.528723575702,814.887237542462
4.5,-76.7967106328673,960.699632334545
4.5125,-82.8294511697214,960.189262589244
4.525,-75.7921609773012,813.513477010911
4.5375,-55.9049089798127,543.077441476635
4.55,-25.5498065321108,190.132755849285
4.5625,11.0016360667285,-191.544289308291
4.575,48.1841807596815,-543.829213616426
4.5875,79.9819224731638,-813.104156208788
4.6,100.908588453687,-958.435278924483
4.6125,106.926710643191,-957.774354087312
4.625,96.205740560889,-811.32703557506
4.6375,69.5326973726591,-541.488848406315
4.65,30.3184162220086,-189.425105660371
4.66250000000001,-15.8088057375365,191.199931333848
4.67500000000001,-61.8300940158985,542.431995026945
4.68750000000001,-100.38673678159,810.813752960078
4.70000000000001,-124.957928413696,955.56966553302
4.71250000000001,-130.957939116174,954.759144321155
4.72500000000001,-116.560985373906,808.630524292077
4.73750000000001,-83.1170544175973,539.556253251745
4.75000000000001,-35.0711801660181,188.600720871338
4.76250000000001,20.6089217042841,-190.743028770591
4.77500000000001,75.4400293113823,-540.684511715336
4.78750000000001,120.72850007729,-808.016198115396
4.80000000000001,148.929708130176,-952.102905259316
4.81250000000001,154.908648111765,-951.142222083538
4.82500000000001,136.843428046308,-805.424542074799
4.83750000000001,96.6487090228052,-537.280329537173
4.85000000000001,39.8010583627895,-187.655776422541
4.86250000000001,-25.3950559265106,190.156679167721
4.87500000000001,-89.0044054543942,538.609510224933
4.88750000000001,-140.994692460668,804.704016747459
4.90000000000001,-172.807689907982,948.032665093097
4.91250000000001,-178.760933193824,946.92118918421
4.92500000000001,-157.041893114504,801.703514830573
4.93750000000001,-110.116922472128,534.667702179997
4.95000000000001,-44.5010827588569,186.586522740625
4.96250000000001,30.16432894835,-189.451509543209
4.97500000000001,102.511570798042,-536.187722908431
4.98750000000001,161.170153243639,-800.880694586213
5.00000000000001,196.574778755156,-943.359003013535
5.01250000000002,202.497888450218,-942.096606916847
5.02500000000002,177.134605311567,-797.479143023538
5.03750000000002,123.517045244469,-531.708837485943
5.05000000000002,49.1742353668602,-185.401715640754
5.06250000000002,-34.9160297446902,188.628426177572
5.07500000000002,-115.950217740106,533.420962977312
5.08750000000002,-181.243322186513,796.551718164461
5.10000000000002,-220.214204965191,938.085196853364
5.11250000000002,-226.103378325569,936.676625021779
5.12500000000002,-197.11536658048,792.748827291311
5.13750000000002,-136.837111954638,528.418624105164
5.15000000000002,-53.8152249164059,184.101828244339
5.16250000000002,39.6453959684994,-187.684972639927
5.17500000000002,129.314324587025,-530.319616345287
5.18750000000002,201.19804511881,-791.716255629123
5.20000000000002,243.713316366964,-932.225061154514
5.21250000000002,249.564135143051,-930.668425008522
5.22500000000002,216.968247328636,-787.518271187823
5.23750000000002,150.071085725055,-524.800131203678
